[Header]
Data File Name	C:\GCMSsolution\Data\Betty_Hong\181026\181026_mango_N3_split2.qgd
Output Date	10/26/2018
Output Time	7:44:16 PM

[File Information]
Type	Data File
Generated	10/26/2018 5:23:39 PM
Generated by	Admin
Modified	10/26/2018 5:40:26 PM
Modified by	Admin

[Sample Information]
Operator Name	Admin
Analyzed	10/26/2018 5:24:26 PM
Type	Unknown
Level	1
Sample Name	181026_mango_N3_split2
Sample ID	
ISTD Amount 1	1
ISTD Amount 2	1
ISTD Amount 3	1
ISTD Amount 4	1
ISTD Amount 5	1
ISTD Amount 6	1
ISTD Amount 7	1
ISTD Amount 8	1
ISTD Amount 9	1
ISTD Amount 10	1
ISTD Amount 11	1
ISTD Amount 12	1
ISTD Amount 13	1
ISTD Amount 14	1
ISTD Amount 15	1
ISTD Amount 16	1
ISTD Amount 17	1
ISTD Amount 18	1
ISTD Amount 19	1
ISTD Amount 20	1
ISTD Amount 21	1
ISTD Amount 22	1
ISTD Amount 23	1
ISTD Amount 24	1
ISTD Amount 25	1
ISTD Amount 26	1
ISTD Amount 27	1
ISTD Amount 28	1
ISTD Amount 29	1
ISTD Amount 30	1
ISTD Amount 31	1
ISTD Amount 32	1
Sample Amount	1
Dilution Factor	1
Vial#	-1
Injection Volume	1
Injection Count	1
Bar Code	

[Original Files]
Data File	C:\GCMSsolution\Data\Betty_Hong\181026\181026_mango_N3_split2.qgd
Method File	C:\GCMSsolution\Data\Betty_Hong\SPME_Headspace_Split2_180717.qgm
Batch File	
Report Format File	
Tuning File	C:\GCMSsolution\System\Tune1\20181017.qgt

[File Description]


[MS Chromatogram]
m/z	1-1 TIC
Event Time(msec)	200
# of Points	4500
Start Time(min)	1.000
End Time(min)	15.997
Ret.Time	Absolute Intensity	Relative Intensity
1.000	7029285	10.41
1.003	7055204	10.45
1.007	7097772	10.51
1.010	7147472	10.59
1.013	7202689	10.67
1.017	7272899	10.77
1.020	7348354	10.88
1.023	7435477	11.01
1.027	7538608	11.16
1.030	7643793	11.32
1.033	7752521	11.48
1.037	7860139	11.64
1.040	7980932	11.82
1.043	8107591	12.01
1.047	8219893	12.17
1.050	8321083	12.32
1.053	8423446	12.48
1.057	8533365	12.64
1.060	8638998	12.79
1.063	8739087	12.94
1.067	8834738	13.08
1.070	8915929	13.20
1.073	8981242	13.30
1.077	9047679	13.40
1.080	9120317	13.51
1.083	9191084	13.61
1.087	9254284	13.71
1.090	9312913	13.79
1.093	9367218	13.87
1.097	9412177	13.94
1.100	9459193	14.01
1.103	9503364	14.07
1.107	9523146	14.10
1.110	9536831	14.12
1.113	9560043	14.16
1.117	9570408	14.17
1.120	9570481	14.17
1.123	9570421	14.17
1.127	9575677	14.18
1.130	9593654	14.21
1.133	9609320	14.23
1.137	9615620	14.24
1.140	9621189	14.25
1.143	9620898	14.25
1.147	9607050	14.23
1.150	9598286	14.22
1.153	9598211	14.22
1.157	9580521	14.19
1.160	9553447	14.15
1.163	9533948	14.12
1.167	9528019	14.11
1.170	9544967	14.14
1.173	9539227	14.13
1.177	9511832	14.09
1.180	9511403	14.09
1.183	9574803	14.18
1.187	9802669	14.52
1.190	10174806	15.07
1.193	10557577	15.64
1.197	10902522	16.15
1.200	11188274	16.57
1.203	11432894	16.93
1.207	11642172	17.24
1.210	11801867	17.48
1.213	11964666	17.72
1.217	12148607	17.99
1.220	12319181	18.24
1.223	12465800	18.46
1.227	12601693	18.66
1.230	12697348	18.81
1.233	12721942	18.84
1.237	12696284	18.80
1.240	12639789	18.72
1.243	12542155	18.58
1.247	12405764	18.37
1.250	12251136	18.14
1.253	12091529	17.91
1.257	11932860	17.67
1.260	11761472	17.42
1.263	11579691	17.15
1.267	11408426	16.90
1.270	11245978	16.66
1.273	11072295	16.40
1.277	10907402	16.15
1.280	10771671	15.95
1.283	10626054	15.74
1.287	10457087	15.49
1.290	10304249	15.26
1.293	10181699	15.08
1.297	10067113	14.91
1.300	9941913	14.72
1.303	9819295	14.54
1.307	9719069	14.39
1.310	9623382	14.25
1.313	9523727	14.10
1.317	9440750	13.98
1.320	9362969	13.87
1.323	9274407	13.74
1.327	9191158	13.61
1.330	9115113	13.50
1.333	9051681	13.41
1.337	8991721	13.32
1.340	8918859	13.21
1.343	8847883	13.10
1.347	8786224	13.01
1.350	8735786	12.94
1.353	8686551	12.86
1.357	8634785	12.79
1.360	8580657	12.71
1.363	8518895	12.62
1.367	8469914	12.54
1.370	8424765	12.48
1.373	8379435	12.41
1.377	8352705	12.37
1.380	8318343	12.32
1.383	8272113	12.25
1.387	8229892	12.19
1.390	8172494	12.10
1.393	8121268	12.03
1.397	8088670	11.98
1.400	8047583	11.92
1.403	8009070	11.86
1.407	7972804	11.81
1.410	7932937	11.75
1.413	7896694	11.70
1.417	7857635	11.64
1.420	7825246	11.59
1.423	7807527	11.56
1.427	7780531	11.52
1.430	7726823	11.44
1.433	7669414	11.36
1.437	7632143	11.30
1.440	7601679	11.26
1.443	7569424	11.21
1.447	7539276	11.17
1.450	7497943	11.10
1.453	7455691	11.04
1.457	7426319	11.00
1.460	7402545	10.96
1.463	7368429	10.91
1.467	7327330	10.85
1.470	7304775	10.82
1.473	7293521	10.80
1.477	7256125	10.75
1.480	7202103	10.67
1.483	7180947	10.64
1.487	7176973	10.63
1.490	7146997	10.58
1.493	7108910	10.53
1.497	7085325	10.49
1.500	7134831	10.57
1.503	7408922	10.97
1.507	7943056	11.76
1.510	8584825	12.71
1.513	9198993	13.62
1.517	9742398	14.43
1.520	10212740	15.13
1.523	10630772	15.74
1.527	10994305	16.28
1.530	11330041	16.78
1.533	11736220	17.38
1.537	12228397	18.11
1.540	12754840	18.89
1.543	13287606	19.68
1.547	13752000	20.37
1.550	14088046	20.86
1.553	14284412	21.16
1.557	14336774	21.23
1.560	14286086	21.16
1.563	14143344	20.95
1.567	13875894	20.55
1.570	13540169	20.05
1.573	13180479	19.52
1.577	12759316	18.90
1.580	12307349	18.23
1.583	11856603	17.56
1.587	11410889	16.90
1.590	10972071	16.25
1.593	10537173	15.61
1.597	10140723	15.02
1.600	9764390	14.46
1.603	9409706	13.94
1.607	9102559	13.48
1.610	8818319	13.06
1.613	8547971	12.66
1.617	8283855	12.27
1.620	8043371	11.91
1.623	7847843	11.62
1.627	7665088	11.35
1.630	7484866	11.09
1.633	7311992	10.83
1.637	7147491	10.59
1.640	7005202	10.37
1.643	6884533	10.20
1.647	6780265	10.04
1.650	6679598	9.89
1.653	6585133	9.75
1.657	6494696	9.62
1.660	6411303	9.50
1.663	6343629	9.40
1.667	6268005	9.28
1.670	6187204	9.16
1.673	6119992	9.06
1.677	6061766	8.98
1.680	6011418	8.90
1.683	5970748	8.84
1.687	5926419	8.78
1.690	5878943	8.71
1.693	5830208	8.63
1.697	5781269	8.56
1.700	5741473	8.50
1.703	5703021	8.45
1.707	5663890	8.39
1.710	5624877	8.33
1.713	5590657	8.28
1.717	5561594	8.24
1.720	5523489	8.18
1.723	5486754	8.13
1.727	5455527	8.08
1.730	5421869	8.03
1.733	5394774	7.99
1.737	5367738	7.95
1.740	5333588	7.90
1.743	5304693	7.86
1.747	5285496	7.83
1.750	5267232	7.80
1.753	5245475	7.77
1.757	5217796	7.73
1.760	5181695	7.67
1.763	5148887	7.63
1.767	5126531	7.59
1.770	5103032	7.56
1.773	5081276	7.53
1.777	5063339	7.50
1.780	5043121	7.47
1.783	5018125	7.43
1.787	4990108	7.39
1.790	4974371	7.37
1.793	4957275	7.34
1.797	4923306	7.29
1.800	4893871	7.25
1.803	4883686	7.23
1.807	4874274	7.22
1.810	4850823	7.18
1.813	4817615	7.13
1.817	4795198	7.10
1.820	4785504	7.09
1.823	4764014	7.06
1.827	4739257	7.02
1.830	4715147	6.98
1.833	4687904	6.94
1.837	4665836	6.91
1.840	4644939	6.88
1.843	4628577	6.86
1.847	4617256	6.84
1.850	4595962	6.81
1.853	4573804	6.77
1.857	4557131	6.75
1.860	4534660	6.72
1.863	4513320	6.68
1.867	4498646	6.66
1.870	4484197	6.64
1.873	4467150	6.62
1.877	4446901	6.59
1.880	4424723	6.55
1.883	4408271	6.53
1.887	4389395	6.50
1.890	4366074	6.47
1.893	4350102	6.44
1.897	4334847	6.42
1.900	4316499	6.39
1.903	4301214	6.37
1.907	4288849	6.35
1.910	4271464	6.33
1.913	4253694	6.30
1.917	4245621	6.29
1.920	4240620	6.28
1.923	4234907	6.27
1.927	4228623	6.26
1.930	4216674	6.24
1.933	4198969	6.22
1.937	4187821	6.20
1.940	4182518	6.19
1.943	4168302	6.17
1.947	4153684	6.15
1.950	4146897	6.14
1.953	4140115	6.13
1.957	4129232	6.12
1.960	4116827	6.10
1.963	4102925	6.08
1.967	4089001	6.06
1.970	4081770	6.05
1.973	4070227	6.03
1.977	4053624	6.00
1.980	4046382	5.99
1.983	4036114	5.98
1.987	4016556	5.95
1.990	3991068	5.91
1.993	3952586	5.85
1.997	3900847	5.78
2.000	3832102	5.68
2.003	3747236	5.55
2.007	3655972	5.41
2.010	3558987	5.27
2.013	3446955	5.11
2.017	3325954	4.93
2.020	3210048	4.75
2.023	3085546	4.57
2.027	2951761	4.37
2.030	2827818	4.19
2.033	2712197	4.02
2.037	2594721	3.84
2.040	2478542	3.67
2.043	2369146	3.51
2.047	2264563	3.35
2.050	2167404	3.21
2.053	2072735	3.07
2.057	1976456	2.93
2.060	1885275	2.79
2.063	1800621	2.67
2.067	1718559	2.55
2.070	1639914	2.43
2.073	1569104	2.32
2.077	1502796	2.23
2.080	1435971	2.13
2.083	1377356	2.04
2.087	1329578	1.97
2.090	1283115	1.90
2.093	1237231	1.83
2.097	1194904	1.77
2.100	1154924	1.71
2.103	1116797	1.65
2.107	1082357	1.60
2.110	1050395	1.56
2.113	1020902	1.51
2.117	994271	1.47
2.120	969831	1.44
2.123	949675	1.41
2.127	930376	1.38
2.130	909858	1.35
2.133	891444	1.32
2.137	874704	1.30
2.140	859775	1.27
2.143	846104	1.25
2.147	834871	1.24
2.150	826011	1.22
2.153	815502	1.21
2.157	806334	1.19
2.160	800200	1.19
2.163	794332	1.18
2.167	786922	1.17
2.170	777475	1.15
2.173	769954	1.14
2.177	767031	1.14
2.180	1028464	1.52
2.183	3717276	5.51
2.187	10795314	15.99
2.190	19657772	29.11
2.193	26910646	39.86
2.197	32222926	47.72
2.200	36162812	53.56
2.203	39058311	57.85
2.207	41381880	61.29
2.210	44569191	66.01
2.213	47037180	69.66
2.217	49363645	73.11
2.220	51339813	76.04
2.223	52813677	78.22
2.227	54028885	80.02
2.230	55234703	81.80
2.233	56326679	83.42
2.237	57229805	84.76
2.240	57973453	85.86
2.243	58639131	86.85
2.247	59236832	87.73
2.250	59764325	88.51
2.253	60304480	89.31
2.257	60875571	90.16
2.260	61420359	90.96
2.263	61943318	91.74
2.267	62427620	92.46
2.270	62851171	93.08
2.273	63361125	93.84
2.277	63988646	94.77
2.280	64551675	95.60
2.283	64995406	96.26
2.287	65392796	96.85
2.290	65863989	97.55
2.293	66446869	98.41
2.297	67069863	99.33
2.300	67521122	100.00
2.303	67017230	99.25
2.307	63383993	93.87
2.310	56105198	83.09
2.313	48925411	72.46
2.317	43415349	64.30
2.320	40524878	60.02
2.323	38264211	56.67
2.327	36557478	54.14
2.330	35246816	52.20
2.333	34141646	50.56
2.337	33141334	49.08
2.340	32175588	47.65
2.343	31221696	46.24
2.347	30314384	44.90
2.350	29490902	43.68
2.353	28746207	42.57
2.357	28029693	41.51
2.360	27303240	40.44
2.363	26544640	39.31
2.367	25905322	38.37
2.370	25359446	37.56
2.373	24756913	36.67
2.377	24159900	35.78
2.380	23594640	34.94
2.383	23099466	34.21
2.387	22650358	33.55
2.390	22211532	32.90
2.393	21831085	32.33
2.397	21478864	31.81
2.400	21030047	31.15
2.403	20510018	30.38
2.407	20027557	29.66
2.410	19618696	29.06
2.413	19260130	28.52
2.417	18940721	28.05
2.420	18663100	27.64
2.423	18379097	27.22
2.427	18060505	26.75
2.430	17764299	26.31
2.433	17506235	25.93
2.437	17265481	25.57
2.440	17020984	25.21
2.443	16749161	24.81
2.447	16465395	24.39
2.450	16197727	23.99
2.453	15900893	23.55
2.457	15556664	23.04
2.460	15258264	22.60
2.463	15010002	22.23
2.467	14755550	21.85
2.470	14478451	21.44
2.473	14155873	20.97
2.477	13793180	20.43
2.480	13432069	19.89
2.483	13125763	19.44
2.487	12867474	19.06
2.490	12613610	18.68
2.493	12340965	18.28
2.497	12063480	17.87
2.500	11802879	17.48
2.503	11534896	17.08
2.507	11271416	16.69
2.510	11016977	16.32
2.513	10790112	15.98
2.517	10605160	15.71
2.520	10406200	15.41
2.523	10238970	15.16
2.527	10095672	14.95
2.530	9850202	14.59
2.533	9572117	14.18
2.537	9371089	13.88
2.540	9212456	13.64
2.543	9045531	13.40
2.547	8874175	13.14
2.550	8737013	12.94
2.553	8630136	12.78
2.557	8501870	12.59
2.560	8318367	12.32
2.563	8131753	12.04
2.567	7971419	11.81
2.570	7806043	11.56
2.573	7664031	11.35
2.577	7552250	11.19
2.580	7444834	11.03
2.583	7354727	10.89
2.587	7259369	10.75
2.590	7120227	10.55
2.593	6973202	10.33
2.597	6853230	10.15
2.600	6744689	9.99
2.603	6626862	9.81
2.607	6498846	9.62
2.610	6390588	9.46
2.613	6301489	9.33
2.617	6190603	9.17
2.620	6077266	9.00
2.623	6024198	8.92
2.627	5982495	8.86
2.630	5879861	8.71
2.633	5751021	8.52
2.637	5643287	8.36
2.640	5558451	8.23
2.643	5464907	8.09
2.647	5375645	7.96
2.650	5304256	7.86
2.653	5244243	7.77
2.657	5202043	7.70
2.660	5139562	7.61
2.663	5049954	7.48
2.667	4954070	7.34
2.670	4862829	7.20
2.673	4797458	7.11
2.677	4757670	7.05
2.680	4715521	6.98
2.683	4649873	6.89
2.687	4578816	6.78
2.690	4511105	6.68
2.693	4435436	6.57
2.697	4374430	6.48
2.700	4337329	6.42
2.703	4295344	6.36
2.707	4241167	6.28
2.710	4192965	6.21
2.713	4155049	6.15
2.717	4108769	6.09
2.720	4037834	5.98
2.723	3961224	5.87
2.727	3909754	5.79
2.730	3881185	5.75
2.733	3849843	5.70
2.737	3820203	5.66
2.740	3792833	5.62
2.743	3740552	5.54
2.747	3683882	5.46
2.750	3644800	5.40
2.753	3613142	5.35
2.757	3578066	5.30
2.760	3534847	5.24
2.763	3486213	5.16
2.767	3435995	5.09
2.770	3402280	5.04
2.773	3389341	5.02
2.777	3376402	5.00
2.780	3349183	4.96
2.783	3309402	4.90
2.787	3261243	4.83
2.790	3214231	4.76
2.793	3183645	4.72
2.797	3155761	4.67
2.800	3123055	4.63
2.803	3092719	4.58
2.807	3064178	4.54
2.810	3039639	4.50
2.813	3013269	4.46
2.817	2983625	4.42
2.820	2956844	4.38
2.823	2935409	4.35
2.827	2907537	4.31
2.830	2871414	4.25
2.833	2842602	4.21
2.837	2825315	4.18
2.840	2809923	4.16
2.843	2779525	4.12
2.847	2744010	4.06
2.850	2720719	4.03
2.853	2695805	3.99
2.857	2664265	3.95
2.860	2637364	3.91
2.863	2616354	3.87
2.867	2592993	3.84
2.870	2570059	3.81
2.873	2564430	3.80
2.877	2561584	3.79
2.880	2541042	3.76
2.883	2516844	3.73
2.887	2495639	3.70
2.890	2474422	3.66
2.893	2454056	3.63
2.897	2432469	3.60
2.900	2409715	3.57
2.903	2383591	3.53
2.907	2359514	3.49
2.910	2344776	3.47
2.913	2329978	3.45
2.917	2320778	3.44
2.920	2323358	3.44
2.923	2320781	3.44
2.927	2302832	3.41
2.930	2270517	3.36
2.933	2239784	3.32
2.937	2213634	3.28
2.940	2187278	3.24
2.943	2168804	3.21
2.947	2158213	3.20
2.950	2155816	3.19
2.953	2158267	3.20
2.957	2157310	3.20
2.960	2145030	3.18
2.963	2122788	3.14
2.967	2100541	3.11
2.970	2082637	3.08
2.973	2059579	3.05
2.977	2030267	3.01
2.980	2008497	2.97
2.983	1990231	2.95
2.987	1961169	2.90
2.990	1921192	2.85
2.993	1868723	2.77
2.997	1795921	2.66
3.000	1705730	2.53
3.003	1610187	2.38
3.007	1510904	2.24
3.010	1409016	2.09
3.013	1310534	1.94
3.017	1220998	1.81
3.020	1142211	1.69
3.023	1072053	1.59
3.027	1014290	1.50
3.030	965289	1.43
3.033	918603	1.36
3.037	880408	1.30
3.040	849630	1.26
3.043	822857	1.22
3.047	800755	1.19
3.050	781360	1.16
3.053	764468	1.13
3.057	751220	1.11
3.060	739934	1.10
3.063	730136	1.08
3.067	723563	1.07
3.070	718571	1.06
3.073	712051	1.05
3.077	705414	1.04
3.080	701117	1.04
3.083	699479	1.04
3.087	698223	1.03
3.090	694197	1.03
3.093	692282	1.03
3.097	691200	1.02
3.100	686651	1.02
3.103	685663	1.02
3.107	684915	1.01
3.110	683550	1.01
3.113	683681	1.01
3.117	683979	1.01
3.120	682885	1.01
3.123	682081	1.01
3.127	683356	1.01
3.130	684759	1.01
3.133	683949	1.01
3.137	681919	1.01
3.140	682717	1.01
3.143	685599	1.02
3.147	685907	1.02
3.150	684823	1.01
3.153	686283	1.02
3.157	688766	1.02
3.160	688560	1.02
3.163	686379	1.02
3.167	686191	1.02
3.170	686235	1.02
3.173	684640	1.01
3.177	683263	1.01
3.180	684999	1.01
3.183	686304	1.02
3.187	688217	1.02
3.190	706087	1.05
3.193	749497	1.11
3.197	796475	1.18
3.200	826570	1.22
3.203	841153	1.25
3.207	844927	1.25
3.210	841589	1.25
3.213	835453	1.24
3.217	827496	1.23
3.220	819948	1.21
3.223	812846	1.20
3.227	806174	1.19
3.230	797669	1.18
3.233	790674	1.17
3.237	785297	1.16
3.240	778037	1.15
3.243	771606	1.14
3.247	767234	1.14
3.250	761802	1.13
3.253	754770	1.12
3.257	750779	1.11
3.260	750409	1.11
3.263	746831	1.11
3.267	742374	1.10
3.270	738318	1.09
3.273	736695	1.09
3.277	736501	1.09
3.280	731678	1.08
3.283	726776	1.08
3.287	725284	1.07
3.290	723171	1.07
3.293	721319	1.07
3.297	719278	1.07
3.300	715692	1.06
3.303	716416	1.06
3.307	717536	1.06
3.310	714838	1.06
3.313	713527	1.06
3.317	713535	1.06
3.320	713755	1.06
3.323	713691	1.06
3.327	714091	1.06
3.330	716971	1.06
3.333	718118	1.06
3.337	718181	1.06
3.340	720584	1.07
3.343	720954	1.07
3.347	720327	1.07
3.350	720874	1.07
3.353	720971	1.07
3.357	720701	1.07
3.360	721123	1.07
3.363	722810	1.07
3.367	726305	1.08
3.370	728191	1.08
3.373	726485	1.08
3.377	724439	1.07
3.380	721153	1.07
3.383	717608	1.06
3.387	715477	1.06
3.390	713917	1.06
3.393	711505	1.05
3.397	709917	1.05
3.400	708663	1.05
3.403	705791	1.05
3.407	704911	1.04
3.410	704810	1.04
3.413	702657	1.04
3.417	699927	1.04
3.420	699356	1.04
3.423	698507	1.03
3.427	697732	1.03
3.430	697281	1.03
3.433	695136	1.03
3.437	693131	1.03
3.440	692510	1.03
3.443	692204	1.03
3.447	692772	1.03
3.450	692298	1.03
3.453	690445	1.02
3.457	690384	1.02
3.460	690448	1.02
3.463	689398	1.02
3.467	688378	1.02
3.470	688450	1.02
3.473	690601	1.02
3.477	691224	1.02
3.480	687897	1.02
3.483	683812	1.01
3.487	681817	1.01
3.490	681848	1.01
3.493	683796	1.01
3.497	684015	1.01
3.500	683533	1.01
3.503	686835	1.02
3.507	730338	1.08
3.510	844438	1.25
3.513	983659	1.46
3.517	1088986	1.61
3.520	1144317	1.69
3.523	1158215	1.72
3.527	1157688	1.71
3.530	1171442	1.73
3.533	1221652	1.81
3.537	1325909	1.96
3.540	1491860	2.21
3.543	1710831	2.53
3.547	1984652	2.94
3.550	2298748	3.40
3.553	2621817	3.88
3.557	2950721	4.37
3.560	3247722	4.81
3.563	3431898	5.08
3.567	3479784	5.15
3.570	3447083	5.11
3.573	3400231	5.04
3.577	3377337	5.00
3.580	3414681	5.06
3.583	3572459	5.29
3.587	3884911	5.75
3.590	4332485	6.42
3.593	4874239	7.22
3.597	5421276	8.03
3.600	5875311	8.70
3.603	6152202	9.11
3.607	6179862	9.15
3.610	5994213	8.88
3.613	5636504	8.35
3.617	5106368	7.56
3.620	4510984	6.68
3.623	3967859	5.88
3.627	3494801	5.18
3.630	3086499	4.57
3.633	2746436	4.07
3.637	2471371	3.66
3.640	2249282	3.33
3.643	2067497	3.06
3.647	1918399	2.84
3.650	1793286	2.66
3.653	1685743	2.50
3.657	1597447	2.37
3.660	1528446	2.26
3.663	1473049	2.18
3.667	1426559	2.11
3.670	1386135	2.05
3.673	1346309	1.99
3.677	1309652	1.94
3.680	1279173	1.89
3.683	1249799	1.85
3.687	1224797	1.81
3.690	1203287	1.78
3.693	1180385	1.75
3.697	1158511	1.72
3.700	1137983	1.69
3.703	1120737	1.66
3.707	1110179	1.64
3.710	1101707	1.63
3.713	1089656	1.61
3.717	1075201	1.59
3.720	1058636	1.57
3.723	1041472	1.54
3.727	1027258	1.52
3.730	1017633	1.51
3.733	1008152	1.49
3.737	997798	1.48
3.740	992457	1.47
3.743	991676	1.47
3.747	987203	1.46
3.750	978150	1.45
3.753	967651	1.43
3.757	961114	1.42
3.760	955924	1.42
3.763	947108	1.40
3.767	939108	1.39
3.770	932473	1.38
3.773	925010	1.37
3.777	917904	1.36
3.780	912202	1.35
3.783	908503	1.35
3.787	906846	1.34
3.790	905735	1.34
3.793	902437	1.34
3.797	897830	1.33
3.800	892330	1.32
3.803	887879	1.31
3.807	883074	1.31
3.810	877887	1.30
3.813	876383	1.30
3.817	876507	1.30
3.820	876706	1.30
3.823	876414	1.30
3.827	876179	1.30
3.830	875520	1.30
3.833	872905	1.29
3.837	871902	1.29
3.840	874044	1.29
3.843	876673	1.30
3.847	876255	1.30
3.850	872712	1.29
3.853	869771	1.29
3.857	865591	1.28
3.860	857486	1.27
3.863	849555	1.26
3.867	842886	1.25
3.870	837362	1.24
3.873	833718	1.23
3.877	830021	1.23
3.880	825424	1.22
3.883	819978	1.21
3.887	817395	1.21
3.890	817770	1.21
3.893	817552	1.21
3.897	813977	1.21
3.900	811653	1.20
3.903	810971	1.20
3.907	809838	1.20
3.910	807736	1.20
3.913	804786	1.19
3.917	803004	1.19
3.920	801791	1.19
3.923	800859	1.19
3.927	800524	1.19
3.930	797745	1.18
3.933	794636	1.18
3.937	791510	1.17
3.940	788952	1.17
3.943	786271	1.16
3.947	782070	1.16
3.950	779481	1.15
3.953	785081	1.16
3.957	812197	1.20
3.960	892810	1.32
3.963	1069328	1.58
3.967	1353504	2.00
3.970	1694678	2.51
3.973	2024272	3.00
3.977	2285171	3.38
3.980	2426209	3.59
3.983	2437856	3.61
3.987	2357385	3.49
3.990	2226317	3.30
3.993	2070739	3.07
3.997	1904531	2.82
4.000	1742169	2.58
4.003	1595787	2.36
4.007	1470284	2.18
4.010	1369714	2.03
4.013	1296239	1.92
4.017	1245309	1.84
4.020	1218714	1.80
4.023	1226204	1.82
4.027	1272554	1.88
4.030	1363269	2.02
4.033	1499049	2.22
4.037	1654374	2.45
4.040	1790628	2.65
4.043	1883105	2.79
4.047	1919163	2.84
4.050	1893396	2.80
4.053	1814565	2.69
4.057	1709647	2.53
4.060	1600108	2.37
4.063	1493071	2.21
4.067	1395616	2.07
4.070	1304580	1.93
4.073	1219307	1.81
4.077	1149964	1.70
4.080	1093394	1.62
4.083	1045598	1.55
4.087	1006735	1.49
4.090	975994	1.45
4.093	954579	1.41
4.097	937418	1.39
4.100	917518	1.36
4.103	895099	1.33
4.107	876717	1.30
4.110	865440	1.28
4.113	857654	1.27
4.117	848529	1.26
4.120	839623	1.24
4.123	833637	1.23
4.127	831170	1.23
4.130	831379	1.23
4.133	834050	1.24
4.137	837424	1.24
4.140	841336	1.25
4.143	844542	1.25
4.147	848087	1.26
4.150	853850	1.26
4.153	860605	1.27
4.157	869385	1.29
4.160	878939	1.30
4.163	885320	1.31
4.167	891436	1.32
4.170	900979	1.33
4.173	910039	1.35
4.177	918522	1.36
4.180	929177	1.38
4.183	934881	1.38
4.187	926599	1.37
4.190	901716	1.34
4.193	869431	1.29
4.197	847240	1.25
4.200	837448	1.24
4.203	832660	1.23
4.207	828520	1.23
4.210	825363	1.22
4.213	825209	1.22
4.217	823370	1.22
4.220	819946	1.21
4.223	816422	1.21
4.227	814169	1.21
4.230	811833	1.20
4.233	808763	1.20
4.237	807208	1.20
4.240	805032	1.19
4.243	801834	1.19
4.247	799412	1.18
4.250	798339	1.18
4.253	794910	1.18
4.257	792530	1.17
4.260	792643	1.17
4.263	792230	1.17
4.267	791815	1.17
4.270	792156	1.17
4.273	790383	1.17
4.277	787345	1.17
4.280	785387	1.16
4.283	782255	1.16
4.287	781681	1.16
4.290	781006	1.16
4.293	779374	1.15
4.297	779655	1.15
4.300	777855	1.15
4.303	775746	1.15
4.307	776446	1.15
4.310	776860	1.15
4.313	776845	1.15
4.317	776896	1.15
4.320	776741	1.15
4.323	774939	1.15
4.327	770799	1.14
4.330	766772	1.14
4.333	765143	1.13
4.337	765378	1.13
4.340	764710	1.13
4.343	763566	1.13
4.347	765069	1.13
4.350	766997	1.14
4.353	767576	1.14
4.357	768075	1.14
4.360	770900	1.14
4.363	776969	1.15
4.367	783267	1.16
4.370	785606	1.16
4.373	785476	1.16
4.377	784177	1.16
4.380	782609	1.16
4.383	779047	1.15
4.387	774465	1.15
4.390	767999	1.14
4.393	760596	1.13
4.397	754373	1.12
4.400	749924	1.11
4.403	746548	1.11
4.407	743284	1.10
4.410	740075	1.10
4.413	738321	1.09
4.417	737674	1.09
4.420	735421	1.09
4.423	733759	1.09
4.427	732623	1.09
4.430	729647	1.08
4.433	726806	1.08
4.437	723721	1.07
4.440	723180	1.07
4.443	724112	1.07
4.447	723665	1.07
4.450	722213	1.07
4.453	720700	1.07
4.457	721181	1.07
4.460	723097	1.07
4.463	723292	1.07
4.467	723174	1.07
4.470	722971	1.07
4.473	721553	1.07
4.477	717100	1.06
4.480	714239	1.06
4.483	715920	1.06
4.487	716630	1.06
4.490	714283	1.06
4.493	711427	1.05
4.497	711029	1.05
4.500	710882	1.05
4.503	710548	1.05
4.507	710546	1.05
4.510	710838	1.05
4.513	710684	1.05
4.517	712053	1.05
4.520	716730	1.06
4.523	719541	1.07
4.527	725087	1.07
4.530	736364	1.09
4.533	745287	1.10
4.537	750604	1.11
4.540	753487	1.12
4.543	751324	1.11
4.547	746814	1.11
4.550	745816	1.10
4.553	744648	1.10
4.557	738455	1.09
4.560	732717	1.09
4.563	728176	1.08
4.567	725262	1.07
4.570	725052	1.07
4.573	721818	1.07
4.577	718230	1.06
4.580	716278	1.06
4.583	715908	1.06
4.587	717354	1.06
4.590	718149	1.06
4.593	716432	1.06
4.597	715035	1.06
4.600	718116	1.06
4.603	732029	1.08
4.607	779549	1.15
4.610	914950	1.36
4.613	1223635	1.81
4.617	1782502	2.64
4.620	2619253	3.88
4.623	3672502	5.44
4.627	4836928	7.16
4.630	5970306	8.84
4.633	6823009	10.10
4.637	7241844	10.73
4.640	7216920	10.69
4.643	6787221	10.05
4.647	6050206	8.96
4.650	5137021	7.61
4.653	4239266	6.28
4.657	3506932	5.19
4.660	2962104	4.39
4.663	2545608	3.77
4.667	2215559	3.28
4.670	1968764	2.92
4.673	1787006	2.65
4.677	1654568	2.45
4.680	1562470	2.31
4.683	1488092	2.20
4.687	1417805	2.10
4.690	1354857	2.01
4.693	1305257	1.93
4.697	1270180	1.88
4.700	1235967	1.83
4.703	1198185	1.77
4.707	1169385	1.73
4.710	1153542	1.71
4.713	1141964	1.69
4.717	1125094	1.67
4.720	1107308	1.64
4.723	1093668	1.62
4.727	1079930	1.60
4.730	1065140	1.58
4.733	1051892	1.56
4.737	1042912	1.54
4.740	1037459	1.54
4.743	1032125	1.53
4.747	1023974	1.52
4.750	1011794	1.50
4.753	997654	1.48
4.757	985801	1.46
4.760	978592	1.45
4.763	973706	1.44
4.767	968166	1.43
4.770	961914	1.42
4.773	954378	1.41
4.777	947417	1.40
4.780	943004	1.40
4.783	939479	1.39
4.787	937049	1.39
4.790	934259	1.38
4.793	932426	1.38
4.797	930544	1.38
4.800	927090	1.37
4.803	923448	1.37
4.807	919554	1.36
4.810	914674	1.35
4.813	908105	1.34
4.817	904373	1.34
4.820	903162	1.34
4.823	896966	1.33
4.827	889835	1.32
4.830	887135	1.31
4.833	886890	1.31
4.837	882008	1.31
4.840	877265	1.30
4.843	875283	1.30
4.847	871274	1.29
4.850	865655	1.28
4.853	864865	1.28
4.857	869381	1.29
4.860	870663	1.29
4.863	866512	1.28
4.867	864349	1.28
4.870	863369	1.28
4.873	860481	1.27
4.877	857792	1.27
4.880	854728	1.27
4.883	853578	1.26
4.887	853163	1.26
4.890	849609	1.26
4.893	844290	1.25
4.897	838219	1.24
4.900	834076	1.24
4.903	832802	1.23
4.907	829681	1.23
4.910	828536	1.23
4.913	829161	1.23
4.917	825769	1.22
4.920	819702	1.21
4.923	819626	1.21
4.927	820344	1.21
4.930	819527	1.21
4.933	816120	1.21
4.937	809926	1.20
4.940	802522	1.19
4.943	793656	1.18
4.947	780923	1.16
4.950	767377	1.14
4.953	753025	1.12
4.957	739019	1.09
4.960	727587	1.08
4.963	717393	1.06
4.967	708772	1.05
4.970	704137	1.04
4.973	701109	1.04
4.977	697781	1.03
4.980	697290	1.03
4.983	697482	1.03
4.987	694559	1.03
4.990	692386	1.03
4.993	692060	1.02
4.997	692869	1.03
5.000	693098	1.03
5.003	691555	1.02
5.007	692099	1.03
5.010	693259	1.03
5.013	693013	1.03
5.017	693541	1.03
5.020	693997	1.03
5.023	694171	1.03
5.027	695796	1.03
5.030	696801	1.03
5.033	695829	1.03
5.037	694646	1.03
5.040	695477	1.03
5.043	698352	1.03
5.047	699420	1.04
5.050	698208	1.03
5.053	694616	1.03
5.057	693262	1.03
5.060	693249	1.03
5.063	691292	1.02
5.067	690504	1.02
5.070	691199	1.02
5.073	691132	1.02
5.077	690677	1.02
5.080	690347	1.02
5.083	689578	1.02
5.087	687351	1.02
5.090	687399	1.02
5.093	691327	1.02
5.097	693573	1.03
5.100	692973	1.03
5.103	691897	1.02
5.107	693202	1.03
5.110	699524	1.04
5.113	711274	1.05
5.117	724971	1.07
5.120	743406	1.10
5.123	768954	1.14
5.127	795725	1.18
5.130	815069	1.21
5.133	825713	1.22
5.137	825671	1.22
5.140	815064	1.21
5.143	799583	1.18
5.147	782108	1.16
5.150	763938	1.13
5.153	748701	1.11
5.157	739627	1.10
5.160	732854	1.09
5.163	724697	1.07
5.167	717878	1.06
5.170	714405	1.06
5.173	713432	1.06
5.177	710969	1.05
5.180	706425	1.05
5.183	706194	1.05
5.187	706663	1.05
5.190	706073	1.05
5.193	704504	1.04
5.197	704366	1.04
5.200	704277	1.04
5.203	706086	1.05
5.207	713238	1.06
5.210	724656	1.07
5.213	739335	1.09
5.217	756196	1.12
5.220	778359	1.15
5.223	802799	1.19
5.227	825356	1.22
5.230	843973	1.25
5.233	856869	1.27
5.237	864342	1.28
5.240	869385	1.29
5.243	870559	1.29
5.247	869436	1.29
5.250	868636	1.29
5.253	866250	1.28
5.257	864255	1.28
5.260	864655	1.28
5.263	870046	1.29
5.267	874601	1.30
5.270	874585	1.30
5.273	874352	1.29
5.277	874057	1.29
5.280	872246	1.29
5.283	874168	1.29
5.287	877388	1.30
5.290	877552	1.30
5.293	875739	1.30
5.297	874942	1.30
5.300	874457	1.30
5.303	876723	1.30
5.307	878395	1.30
5.310	877813	1.30
5.313	877587	1.30
5.317	878080	1.30
5.320	876950	1.30
5.323	874468	1.30
5.327	877240	1.30
5.330	882095	1.31
5.333	891896	1.32
5.337	919239	1.36
5.340	971247	1.44
5.343	1048153	1.55
5.347	1145093	1.70
5.350	1261048	1.87
5.353	1400049	2.07
5.357	1561017	2.31
5.360	1747605	2.59
5.363	1953634	2.89
5.367	2144774	3.18
5.370	2290035	3.39
5.373	2369597	3.51
5.377	2358002	3.49
5.380	2251493	3.33
5.383	2088064	3.09
5.387	1914586	2.84
5.390	1757158	2.60
5.393	1626066	2.41
5.397	1532262	2.27
5.400	1467651	2.17
5.403	1416535	2.10
5.407	1378765	2.04
5.410	1351982	2.00
5.413	1331624	1.97
5.417	1312837	1.94
5.420	1294850	1.92
5.423	1287974	1.91
5.427	1288689	1.91
5.430	1286876	1.91
5.433	1279573	1.90
5.437	1272550	1.88
5.440	1267019	1.88
5.443	1260581	1.87
5.447	1256514	1.86
5.450	1258176	1.86
5.453	1260480	1.87
5.457	1261287	1.87
5.460	1256110	1.86
5.463	1243324	1.84
5.467	1244565	1.84
5.470	1250737	1.85
5.473	1244642	1.84
5.477	1237563	1.83
5.480	1234874	1.83
5.483	1230731	1.82
5.487	1227436	1.82
5.490	1228348	1.82
5.493	1230542	1.82
5.497	1230484	1.82
5.500	1230169	1.82
5.503	1227825	1.82
5.507	1228584	1.82
5.510	1235216	1.83
5.513	1239662	1.84
5.517	1238403	1.83
5.520	1234081	1.83
5.523	1229703	1.82
5.527	1227743	1.82
5.530	1219031	1.81
5.533	1211494	1.79
5.537	1218703	1.80
5.540	1225699	1.82
5.543	1222653	1.81
5.547	1218704	1.80
5.550	1216037	1.80
5.553	1212634	1.80
5.557	1206634	1.79
5.560	1204421	1.78
5.563	1197512	1.77
5.567	1180257	1.75
5.570	1162034	1.72
5.573	1138586	1.69
5.577	1111811	1.65
5.580	1086159	1.61
5.583	1061063	1.57
5.587	1042117	1.54
5.590	1027984	1.52
5.593	1013035	1.50
5.597	1001436	1.48
5.600	992595	1.47
5.603	979650	1.45
5.607	964634	1.43
5.610	955065	1.41
5.613	949929	1.41
5.617	942105	1.40
5.620	937583	1.39
5.623	934852	1.38
5.627	928862	1.38
5.630	926514	1.37
5.633	926070	1.37
5.637	923719	1.37
5.640	924611	1.37
5.643	926502	1.37
5.647	925244	1.37
5.650	920004	1.36
5.653	915302	1.36
5.657	914556	1.35
5.660	910544	1.35
5.663	909636	1.35
5.667	910348	1.35
5.670	909437	1.35
5.673	908982	1.35
5.677	910334	1.35
5.680	910454	1.35
5.683	913294	1.35
5.687	924406	1.37
5.690	933033	1.38
5.693	937528	1.39
5.697	943717	1.40
5.700	946020	1.40
5.703	946188	1.40
5.707	950217	1.41
5.710	950144	1.41
5.713	940249	1.39
5.717	928543	1.38
5.720	920150	1.36
5.723	915202	1.36
5.727	914999	1.36
5.730	915217	1.36
5.733	910029	1.35
5.737	903249	1.34
5.740	900584	1.33
5.743	894691	1.33
5.747	886267	1.31
5.750	883082	1.31
5.753	884780	1.31
5.757	884473	1.31
5.760	879559	1.30
5.763	874497	1.30
5.767	875586	1.30
5.770	880564	1.30
5.773	884353	1.31
5.777	886363	1.31
5.780	882544	1.31
5.783	874327	1.29
5.787	865940	1.28
5.790	858721	1.27
5.793	857547	1.27
5.797	858836	1.27
5.800	862163	1.28
5.803	862772	1.28
5.807	863024	1.28
5.810	865474	1.28
5.813	866737	1.28
5.817	867374	1.28
5.820	866802	1.28
5.823	865597	1.28
5.827	863786	1.28
5.830	862172	1.28
5.833	858752	1.27
5.837	853930	1.26
5.840	851490	1.26
5.843	854040	1.26
5.847	851116	1.26
5.850	843864	1.25
5.853	845418	1.25
5.857	855313	1.27
5.860	868237	1.29
5.863	880528	1.30
5.867	890444	1.32
5.870	901299	1.33
5.873	909249	1.35
5.877	915130	1.36
5.880	923342	1.37
5.883	932742	1.38
5.887	937993	1.39
5.890	934133	1.38
5.893	921496	1.36
5.897	901717	1.34
5.900	883514	1.31
5.903	874685	1.30
5.907	868236	1.29
5.910	859134	1.27
5.913	851043	1.26
5.917	847576	1.26
5.920	847185	1.25
5.923	844024	1.25
5.927	840946	1.25
5.930	840451	1.24
5.933	840449	1.24
5.937	840371	1.24
5.940	836334	1.24
5.943	835100	1.24
5.947	838194	1.24
5.950	840666	1.25
5.953	840623	1.24
5.957	839375	1.24
5.960	836272	1.24
5.963	836284	1.24
5.967	840567	1.24
5.970	844197	1.25
5.973	846127	1.25
5.977	848023	1.26
5.980	849793	1.26
5.983	850913	1.26
5.987	854279	1.27
5.990	859185	1.27
5.993	866501	1.28
5.997	874963	1.30
6.000	882159	1.31
6.003	886851	1.31
6.007	886596	1.31
6.010	880815	1.30
6.013	872010	1.29
6.017	861728	1.28
6.020	854257	1.27
6.023	850991	1.26
6.027	848513	1.26
6.030	850450	1.26
6.033	857184	1.27
6.037	864547	1.28
6.040	875149	1.30
6.043	882053	1.31
6.047	881830	1.31
6.050	876006	1.30
6.053	869369	1.29
6.057	864204	1.28
6.060	858732	1.27
6.063	850323	1.26
6.067	844006	1.25
6.070	840674	1.25
6.073	839111	1.24
6.077	836807	1.24
6.080	833926	1.24
6.083	831775	1.23
6.087	830381	1.23
6.090	828760	1.23
6.093	825970	1.22
6.097	823096	1.22
6.100	822477	1.22
6.103	823972	1.22
6.107	825941	1.22
6.110	826032	1.22
6.113	829634	1.23
6.117	839315	1.24
6.120	848529	1.26
6.123	852567	1.26
6.127	852677	1.26
6.130	852682	1.26
6.133	852615	1.26
6.137	847317	1.25
6.140	836734	1.24
6.143	829091	1.23
6.147	829050	1.23
6.150	830188	1.23
6.153	826263	1.22
6.157	820996	1.22
6.160	817097	1.21
6.163	816590	1.21
6.167	816829	1.21
6.170	814347	1.21
6.173	808456	1.20
6.177	805667	1.19
6.180	804194	1.19
6.183	803394	1.19
6.187	803419	1.19
6.190	803906	1.19
6.193	804455	1.19
6.197	805580	1.19
6.200	807704	1.20
6.203	807807	1.20
6.207	805818	1.19
6.210	804243	1.19
6.213	800856	1.19
6.217	797791	1.18
6.220	797882	1.18
6.223	797998	1.18
6.227	796554	1.18
6.230	797262	1.18
6.233	798718	1.18
6.237	798094	1.18
6.240	796196	1.18
6.243	797119	1.18
6.247	800205	1.19
6.250	800204	1.19
6.253	798729	1.18
6.257	799535	1.18
6.260	798461	1.18
6.263	795960	1.18
6.267	795574	1.18
6.270	796441	1.18
6.273	799037	1.18
6.277	801591	1.19
6.280	803829	1.19
6.283	807105	1.20
6.287	811425	1.20
6.290	815648	1.21
6.293	821342	1.22
6.297	828987	1.23
6.300	836821	1.24
6.303	843676	1.25
6.307	844313	1.25
6.310	836819	1.24
6.313	825878	1.22
6.317	819534	1.21
6.320	815104	1.21
6.323	806488	1.19
6.327	801593	1.19
6.330	802448	1.19
6.333	799132	1.18
6.337	796011	1.18
6.340	796324	1.18
6.343	794748	1.18
6.347	790724	1.17
6.350	788013	1.17
6.353	785190	1.16
6.357	783146	1.16
6.360	783016	1.16
6.363	783245	1.16
6.367	785040	1.16
6.370	790062	1.17
6.373	795462	1.18
6.377	798829	1.18
6.380	800829	1.19
6.383	800803	1.19
6.387	796369	1.18
6.390	792607	1.17
6.393	793106	1.17
6.397	790863	1.17
6.400	785170	1.16
6.403	785057	1.16
6.407	787931	1.17
6.410	790678	1.17
6.413	790967	1.17
6.417	790761	1.17
6.420	792125	1.17
6.423	795402	1.18
6.427	794963	1.18
6.430	791401	1.17
6.433	792685	1.17
6.437	794153	1.18
6.440	791125	1.17
6.443	790368	1.17
6.447	790817	1.17
6.450	791030	1.17
6.453	790274	1.17
6.457	790770	1.17
6.460	796439	1.18
6.463	803924	1.19
6.467	807418	1.20
6.470	806934	1.20
6.473	806301	1.19
6.477	806298	1.19
6.480	803818	1.19
6.483	798928	1.18
6.487	796536	1.18
6.490	794195	1.18
6.493	791004	1.17
6.497	790709	1.17
6.500	791305	1.17
6.503	793987	1.18
6.507	805834	1.19
6.510	855806	1.27
6.513	1021831	1.51
6.517	1477609	2.19
6.520	2529855	3.75
6.523	4531792	6.71
6.527	7842276	11.61
6.530	12409806	18.38
6.533	17689423	26.20
6.537	22962542	34.01
6.540	27336784	40.49
6.543	30419801	45.05
6.547	32275204	47.80
6.550	32688787	48.41
6.553	31386338	46.48
6.557	28468357	42.16
6.560	24487966	36.27
6.563	20541096	30.42
6.567	18064904	26.75
6.570	17692841	26.20
6.573	18701232	27.70
6.577	20064148	29.72
6.580	21155608	31.33
6.583	21551757	31.92
6.587	20783180	30.78
6.590	18595562	27.54
6.593	15663504	23.20
6.597	12974340	19.22
6.600	10880266	16.11
6.603	9351454	13.85
6.607	8286837	12.27
6.610	7567050	11.21
6.613	7087153	10.50
6.617	6747411	9.99
6.620	6478492	9.59
6.623	6281419	9.30
6.627	6140967	9.09
6.630	5976276	8.85
6.633	5802179	8.59
6.637	5689101	8.43
6.640	5583400	8.27
6.643	5428625	8.04
6.647	5259096	7.79
6.650	5130753	7.60
6.653	5049786	7.48
6.657	4950733	7.33
6.660	4811851	7.13
6.663	4665256	6.91
6.667	4481640	6.64
6.670	4198176	6.22
6.673	3823396	5.66
6.677	3421839	5.07
6.680	3021154	4.47
6.683	2636938	3.91
6.687	2313683	3.43
6.690	2074113	3.07
6.693	1909288	2.83
6.697	1791989	2.65
6.700	1685966	2.50
6.703	1570284	2.33
6.707	1443492	2.14
6.710	1319832	1.95
6.713	1205966	1.79
6.717	1100456	1.63
6.720	1022099	1.51
6.723	994574	1.47
6.727	1040176	1.54
6.730	1168651	1.73
6.733	1358366	2.01
6.737	1557227	2.31
6.740	1701764	2.52
6.743	1753548	2.60
6.747	1710721	2.53
6.750	1602315	2.37
6.753	1467419	2.17
6.757	1328028	1.97
6.760	1206112	1.79
6.763	1117180	1.65
6.767	1058292	1.57
6.770	1024477	1.52
6.773	1002930	1.49
6.777	991580	1.47
6.780	993604	1.47
6.783	1005755	1.49
6.787	1019484	1.51
6.790	1025467	1.52
6.793	1025148	1.52
6.797	1019944	1.51
6.800	1009668	1.50
6.803	992416	1.47
6.807	973340	1.44
6.810	954232	1.41
6.813	934348	1.38
6.817	916578	1.36
6.820	904798	1.34
6.823	900290	1.33
6.827	896562	1.33
6.830	892432	1.32
6.833	891341	1.32
6.837	887438	1.31
6.840	883724	1.31
6.843	880833	1.30
6.847	876001	1.30
6.850	874076	1.29
6.853	871974	1.29
6.857	865122	1.28
6.860	859859	1.27
6.863	862807	1.28
6.867	878574	1.30
6.870	913779	1.35
6.873	973270	1.44
6.877	1052577	1.56
6.880	1140964	1.69
6.883	1224282	1.81
6.887	1286257	1.90
6.890	1315202	1.95
6.893	1307061	1.94
6.897	1266422	1.88
6.900	1206403	1.79
6.903	1140910	1.69
6.907	1083526	1.60
6.910	1040726	1.54
6.913	1007393	1.49
6.917	980759	1.45
6.920	958249	1.42
6.923	938439	1.39
6.927	923443	1.37
6.930	912731	1.35
6.933	902220	1.34
6.937	891543	1.32
6.940	881791	1.31
6.943	875858	1.30
6.947	872800	1.29
6.950	867309	1.28
6.953	860911	1.28
6.957	857728	1.27
6.960	858718	1.27
6.963	860114	1.27
6.967	856774	1.27
6.970	855445	1.27
6.973	855824	1.27
6.977	853900	1.26
6.980	850229	1.26
6.983	846752	1.25
6.987	846751	1.25
6.990	850121	1.26
6.993	851587	1.26
6.997	850708	1.26
7.000	853867	1.26
7.003	860599	1.27
7.007	861787	1.28
7.010	856755	1.27
7.013	846771	1.25
7.017	833711	1.23
7.020	822707	1.22
7.023	818096	1.21
7.027	813798	1.21
7.030	804852	1.19
7.033	796647	1.18
7.037	790291	1.17
7.040	785870	1.16
7.043	785839	1.16
7.047	785843	1.16
7.050	784447	1.16
7.053	781157	1.16
7.057	780082	1.16
7.060	781212	1.16
7.063	780900	1.16
7.067	778803	1.15
7.070	780412	1.16
7.073	781040	1.16
7.077	779702	1.15
7.080	778562	1.15
7.083	775517	1.15
7.087	773486	1.15
7.090	772670	1.14
7.093	773503	1.15
7.097	775746	1.15
7.100	774762	1.15
7.103	771840	1.14
7.107	770581	1.14
7.110	769649	1.14
7.113	769017	1.14
7.117	768415	1.14
7.120	768798	1.14
7.123	769363	1.14
7.127	768767	1.14
7.130	769136	1.14
7.133	770157	1.14
7.137	769455	1.14
7.140	770376	1.14
7.143	771650	1.14
7.147	768114	1.14
7.150	765777	1.13
7.153	767779	1.14
7.157	768824	1.14
7.160	769349	1.14
7.163	772014	1.14
7.167	779438	1.15
7.170	789574	1.17
7.173	804375	1.19
7.177	825886	1.22
7.180	852649	1.26
7.183	879056	1.30
7.187	896262	1.33
7.190	902664	1.34
7.193	898587	1.33
7.197	881133	1.30
7.200	859967	1.27
7.203	845878	1.25
7.207	843741	1.25
7.210	854091	1.26
7.213	878156	1.30
7.217	910854	1.35
7.220	946694	1.40
7.223	978697	1.45
7.227	999901	1.48
7.230	1005201	1.49
7.233	989736	1.47
7.237	962808	1.43
7.240	937135	1.39
7.243	914137	1.35
7.247	892355	1.32
7.250	874246	1.29
7.253	861016	1.28
7.257	852345	1.26
7.260	845497	1.25
7.263	839541	1.24
7.267	835322	1.24
7.270	830611	1.23
7.273	825240	1.22
7.277	821726	1.22
7.280	818524	1.21
7.283	814595	1.21
7.287	811008	1.20
7.290	805950	1.19
7.293	799268	1.18
7.297	795380	1.18
7.300	795203	1.18
7.303	795129	1.18
7.307	793858	1.18
7.310	790826	1.17
7.313	789195	1.17
7.317	786293	1.16
7.320	783046	1.16
7.323	778816	1.15
7.327	774256	1.15
7.330	772112	1.14
7.333	770624	1.14
7.337	766780	1.14
7.340	764930	1.13
7.343	764864	1.13
7.347	763864	1.13
7.350	762891	1.13
7.353	765384	1.13
7.357	772055	1.14
7.360	779631	1.15
7.363	790054	1.17
7.367	802967	1.19
7.370	814910	1.21
7.373	822125	1.22
7.377	822512	1.22
7.380	815650	1.21
7.383	805177	1.19
7.387	795275	1.18
7.390	786347	1.16
7.393	778753	1.15
7.397	772542	1.14
7.400	767719	1.14
7.403	764114	1.13
7.407	760718	1.13
7.410	759363	1.12
7.413	761569	1.13
7.417	763892	1.13
7.420	760777	1.13
7.423	758823	1.12
7.427	760019	1.13
7.430	765617	1.13
7.433	775459	1.15
7.437	784813	1.16
7.440	791525	1.17
7.443	795440	1.18
7.447	797658	1.18
7.450	797672	1.18
7.453	794028	1.18
7.457	787186	1.17
7.460	780285	1.16
7.463	775446	1.15
7.467	772145	1.14
7.470	767457	1.14
7.473	764120	1.13
7.477	764055	1.13
7.480	764201	1.13
7.483	764386	1.13
7.487	764031	1.13
7.490	763902	1.13
7.493	765814	1.13
7.497	769325	1.14
7.500	771522	1.14
7.503	772027	1.14
7.507	772555	1.14
7.510	772553	1.14
7.513	771783	1.14
7.517	771096	1.14
7.520	769970	1.14
7.523	766816	1.14
7.527	764118	1.13
7.530	763917	1.13
7.533	764065	1.13
7.537	764523	1.13
7.540	764097	1.13
7.543	763896	1.13
7.547	766466	1.14
7.550	768649	1.14
7.553	764989	1.13
7.557	759643	1.13
7.560	759349	1.12
7.563	763888	1.13
7.567	766645	1.14
7.570	766722	1.14
7.573	766646	1.14
7.577	766712	1.14
7.580	763772	1.13
7.583	758996	1.12
7.587	759169	1.12
7.590	760589	1.13
7.593	759813	1.13
7.597	758778	1.12
7.600	755710	1.12
7.603	753102	1.12
7.607	752934	1.12
7.610	753017	1.12
7.613	750701	1.11
7.617	748942	1.11
7.620	748981	1.11
7.623	749061	1.11
7.627	750806	1.11
7.630	750820	1.11
7.633	747124	1.11
7.637	746054	1.10
7.640	749029	1.11
7.643	749540	1.11
7.647	748993	1.11
7.650	749417	1.11
7.653	750662	1.11
7.657	751075	1.11
7.660	749956	1.11
7.663	749765	1.11
7.667	754275	1.12
7.670	765843	1.13
7.673	793889	1.18
7.677	861301	1.28
7.680	1006418	1.49
7.683	1290934	1.91
7.687	1792246	2.65
7.690	2577010	3.82
7.693	3661956	5.42
7.697	4921194	7.29
7.700	6136180	9.09
7.703	7102783	10.52
7.707	7624214	11.29
7.710	7627066	11.30
7.713	7099532	10.51
7.717	6064668	8.98
7.720	4760565	7.05
7.723	3537207	5.24
7.727	2590866	3.84
7.730	1909259	2.83
7.733	1444870	2.14
7.737	1170887	1.73
7.740	1028583	1.52
7.743	957172	1.42
7.747	918993	1.36
7.750	893677	1.32
7.753	873772	1.29
7.757	856809	1.27
7.760	846140	1.25
7.763	842240	1.25
7.767	837276	1.24
7.770	828354	1.23
7.773	822355	1.22
7.777	822380	1.22
7.780	820394	1.22
7.783	812928	1.20
7.787	806527	1.19
7.790	799407	1.18
7.793	791879	1.17
7.797	786116	1.16
7.800	780338	1.16
7.803	774614	1.15
7.807	768712	1.14
7.810	762535	1.13
7.813	761126	1.13
7.817	762473	1.13
7.820	760989	1.13
7.823	758865	1.12
7.827	758936	1.12
7.830	757726	1.12
7.833	755904	1.12
7.837	754018	1.12
7.840	753244	1.12
7.843	754104	1.12
7.847	753555	1.12
7.850	752351	1.11
7.853	751848	1.11
7.857	750855	1.11
7.860	750490	1.11
7.863	748836	1.11
7.867	746777	1.11
7.870	747482	1.11
7.873	749928	1.11
7.877	748401	1.11
7.880	743029	1.10
7.883	743035	1.10
7.887	748565	1.11
7.890	750283	1.11
7.893	748834	1.11
7.897	747949	1.11
7.900	746699	1.11
7.903	747831	1.11
7.907	750125	1.11
7.910	750505	1.11
7.913	748092	1.11
7.917	746479	1.11
7.920	748947	1.11
7.923	750988	1.11
7.927	749189	1.11
7.930	748266	1.11
7.933	748914	1.11
7.937	748953	1.11
7.940	748224	1.11
7.943	747535	1.11
7.947	747029	1.11
7.950	746881	1.11
7.953	748278	1.11
7.957	749616	1.11
7.960	750045	1.11
7.963	750067	1.11
7.967	748982	1.11
7.970	748686	1.11
7.973	747816	1.11
7.977	747227	1.11
7.980	750087	1.11
7.983	753493	1.12
7.987	756819	1.12
7.990	762567	1.13
7.993	771123	1.14
7.997	780794	1.16
8.000	792103	1.17
8.003	805097	1.19
8.007	820019	1.21
8.010	838359	1.24
8.013	864626	1.28
8.017	895029	1.33
8.020	924651	1.37
8.023	954915	1.41
8.027	982181	1.45
8.030	1003101	1.49
8.033	1021209	1.51
8.037	1034938	1.53
8.040	1040932	1.54
8.043	1036347	1.53
8.047	1015713	1.50
8.050	982376	1.45
8.053	946296	1.40
8.057	911783	1.35
8.060	878890	1.30
8.063	853034	1.26
8.067	836916	1.24
8.070	824622	1.22
8.073	812591	1.20
8.077	803828	1.19
8.080	798751	1.18
8.083	793955	1.18
8.087	786124	1.16
8.090	776705	1.15
8.093	771856	1.14
8.097	768837	1.14
8.100	762339	1.13
8.103	757792	1.12
8.107	756778	1.12
8.110	756960	1.12
8.113	757540	1.12
8.117	755822	1.12
8.120	753711	1.12
8.123	753669	1.12
8.127	752122	1.11
8.130	747501	1.11
8.133	745202	1.10
8.137	746226	1.11
8.140	747415	1.11
8.143	747420	1.11
8.147	746953	1.11
8.150	745730	1.10
8.153	742858	1.10
8.157	742166	1.10
8.160	744236	1.10
8.163	745299	1.10
8.167	743582	1.10
8.170	742529	1.10
8.173	742367	1.10
8.177	742199	1.10
8.180	741670	1.10
8.183	741591	1.10
8.187	742072	1.10
8.190	742304	1.10
8.193	742646	1.10
8.197	742512	1.10
8.200	741601	1.10
8.203	739807	1.10
8.207	739877	1.10
8.210	742474	1.10
8.213	743399	1.10
8.217	741799	1.10
8.220	741636	1.10
8.223	743555	1.10
8.227	747903	1.11
8.230	751645	1.11
8.233	752362	1.11
8.237	756272	1.12
8.240	758705	1.12
8.243	758703	1.12
8.247	758756	1.12
8.250	758738	1.12
8.253	758682	1.12
8.257	758629	1.12
8.260	761301	1.13
8.263	770965	1.14
8.267	785737	1.16
8.270	801991	1.19
8.273	815378	1.21
8.277	824839	1.22
8.280	827491	1.23
8.283	823304	1.22
8.287	816673	1.21
8.290	807650	1.20
8.293	798211	1.18
8.297	791429	1.17
8.300	787401	1.17
8.303	785988	1.16
8.307	785492	1.16
8.310	785375	1.16
8.313	787822	1.17
8.317	788247	1.17
8.320	785159	1.16
8.323	779070	1.15
8.327	773864	1.15
8.330	770993	1.14
8.333	767381	1.14
8.337	762876	1.13
8.340	758695	1.12
8.343	754650	1.12
8.347	751574	1.11
8.350	751651	1.11
8.353	754598	1.12
8.357	756431	1.12
8.360	758400	1.12
8.363	759394	1.12
8.367	763910	1.13
8.370	772293	1.14
8.373	780931	1.16
8.377	792890	1.17
8.380	814558	1.21
8.383	841993	1.25
8.387	876849	1.30
8.390	924739	1.37
8.393	977428	1.45
8.397	1023490	1.52
8.400	1063582	1.58
8.403	1098033	1.63
8.407	1131114	1.68
8.410	1166144	1.73
8.413	1200926	1.78
8.417	1231985	1.82
8.420	1256102	1.86
8.423	1271529	1.88
8.427	1268897	1.88
8.430	1242170	1.84
8.433	1201737	1.78
8.437	1157885	1.71
8.440	1111578	1.65
8.443	1063854	1.58
8.447	1023204	1.52
8.450	994187	1.47
8.453	972539	1.44
8.457	952195	1.41
8.460	938305	1.39
8.463	929015	1.38
8.467	918857	1.36
8.470	908181	1.35
8.473	897826	1.33
8.477	890551	1.32
8.480	881662	1.31
8.483	870620	1.29
8.487	863042	1.28
8.490	857698	1.27
8.493	852266	1.26
8.497	848111	1.26
8.500	840310	1.24
8.503	827928	1.23
8.507	817311	1.21
8.510	809119	1.20
8.513	802338	1.19
8.517	796268	1.18
8.520	790421	1.17
8.523	789507	1.17
8.527	791102	1.17
8.530	793449	1.18
8.533	798734	1.18
8.537	814261	1.21
8.540	851941	1.26
8.543	923540	1.37
8.547	1039259	1.54
8.550	1203112	1.78
8.553	1401244	2.08
8.557	1597578	2.37
8.560	1755534	2.60
8.563	1850657	2.74
8.567	1855965	2.75
8.570	1755004	2.60
8.573	1572920	2.33
8.577	1370467	2.03
8.580	1193013	1.77
8.583	1054963	1.56
8.587	953735	1.41
8.590	886542	1.31
8.593	847906	1.26
8.597	826911	1.22
8.600	814506	1.21
8.603	805965	1.19
8.607	799025	1.18
8.610	794869	1.18
8.613	790990	1.17
8.617	787137	1.17
8.620	783124	1.16
8.623	782434	1.16
8.627	782772	1.16
8.630	782279	1.16
8.633	779451	1.15
8.637	774859	1.15
8.640	772670	1.14
8.643	776640	1.15
8.647	784438	1.16
8.650	798984	1.18
8.653	824562	1.22
8.657	867102	1.28
8.660	939251	1.39
8.663	1050450	1.56
8.667	1191906	1.77
8.670	1354328	2.01
8.673	1517258	2.25
8.677	1631524	2.42
8.680	1662117	2.46
8.683	1622460	2.40
8.687	1540971	2.28
8.690	1429542	2.12
8.693	1309667	1.94
8.697	1204710	1.78
8.700	1121658	1.66
8.703	1063804	1.58
8.707	1024323	1.52
8.710	993264	1.47
8.713	967818	1.43
8.717	943134	1.40
8.720	915382	1.36
8.723	888359	1.32
8.727	863905	1.28
8.730	844406	1.25
8.733	829024	1.23
8.737	817905	1.21
8.740	816237	1.21
8.743	825725	1.22
8.747	845409	1.25
8.750	873295	1.29
8.753	900447	1.33
8.757	921782	1.37
8.760	933620	1.38
8.763	935329	1.39
8.767	924317	1.37
8.770	903815	1.34
8.773	882169	1.31
8.777	863906	1.28
8.780	853725	1.26
8.783	855769	1.27
8.787	874477	1.30
8.790	913197	1.35
8.793	966651	1.43
8.797	1032254	1.53
8.800	1105573	1.64
8.803	1168502	1.73
8.807	1205150	1.78
8.810	1205509	1.79
8.813	1172297	1.74
8.817	1121897	1.66
8.820	1071442	1.59
8.823	1026013	1.52
8.827	988925	1.46
8.830	960652	1.42
8.833	939100	1.39
8.837	919250	1.36
8.840	900376	1.33
8.843	882295	1.31
8.847	860098	1.27
8.850	839270	1.24
8.853	825867	1.22
8.857	814179	1.21
8.860	804345	1.19
8.863	799994	1.18
8.867	798861	1.18
8.870	796332	1.18
8.873	793091	1.17
8.877	791146	1.17
8.880	787741	1.17
8.883	785778	1.16
8.887	786067	1.16
8.890	786164	1.16
8.893	786227	1.16
8.897	789098	1.17
8.900	791213	1.17
8.903	799269	1.18
8.907	823041	1.22
8.910	864438	1.28
8.913	924455	1.37
8.917	1000456	1.48
8.920	1078554	1.60
8.923	1145527	1.70
8.927	1185670	1.76
8.930	1188588	1.76
8.933	1161737	1.72
8.937	1123007	1.66
8.940	1081505	1.60
8.943	1038351	1.54
8.947	998278	1.48
8.950	968032	1.43
8.953	949505	1.41
8.957	939246	1.39
8.960	931978	1.38
8.963	923815	1.37
8.967	914132	1.35
8.970	907219	1.34
8.973	900743	1.33
8.977	892940	1.32
8.980	884586	1.31
8.983	875249	1.30
8.987	864853	1.28
8.990	854190	1.27
8.993	842982	1.25
8.997	833032	1.23
9.000	824842	1.22
9.003	816629	1.21
9.007	809159	1.20
9.010	808762	1.20
9.013	812047	1.20
9.017	816931	1.21
9.020	828138	1.23
9.023	855884	1.27
9.027	909435	1.35
9.030	994444	1.47
9.033	1109789	1.64
9.037	1246993	1.85
9.040	1380427	2.04
9.043	1481377	2.19
9.047	1541719	2.28
9.050	1564236	2.32
9.053	1551373	2.30
9.057	1511304	2.24
9.060	1453041	2.15
9.063	1381588	2.05
9.067	1308902	1.94
9.070	1254666	1.86
9.073	1238464	1.83
9.077	1316745	1.95
9.080	1630149	2.41
9.083	2424424	3.59
9.087	4050916	6.00
9.090	6828411	10.11
9.093	10744008	15.91
9.097	15472658	22.92
9.100	20596059	30.50
9.103	25609014	37.93
9.107	30035818	44.48
9.110	33370190	49.42
9.113	35057732	51.92
9.117	34727052	51.43
9.120	32258951	47.78
9.123	27823065	41.21
9.127	22046128	32.65
9.130	16181973	23.97
9.133	11432296	16.93
9.137	8079423	11.97
9.140	5912765	8.76
9.143	4601811	6.82
9.147	3722272	5.51
9.150	3040602	4.50
9.153	2484072	3.68
9.157	2026928	3.00
9.160	1653054	2.45
9.163	1350268	2.00
9.167	1126107	1.67
9.170	975657	1.44
9.173	883057	1.31
9.177	830244	1.23
9.180	803652	1.19
9.183	792712	1.17
9.187	786817	1.17
9.190	781876	1.16
9.193	778302	1.15
9.197	776536	1.15
9.200	774229	1.15
9.203	772856	1.14
9.207	772855	1.14
9.210	774105	1.15
9.213	776889	1.15
9.217	780056	1.16
9.220	786437	1.16
9.223	803790	1.19
9.227	842766	1.25
9.230	906043	1.34
9.233	991877	1.47
9.237	1096246	1.62
9.240	1211006	1.79
9.243	1312286	1.94
9.247	1371396	2.03
9.250	1380379	2.04
9.253	1356867	2.01
9.257	1320113	1.96
9.260	1295185	1.92
9.263	1313070	1.94
9.267	1386937	2.05
9.270	1504448	2.23
9.273	1641789	2.43
9.277	1761665	2.61
9.280	1844653	2.73
9.283	1886718	2.79
9.287	1864647	2.76
9.290	1780477	2.64
9.293	1671007	2.47
9.297	1557201	2.31
9.300	1457433	2.16
9.303	1373371	2.03
9.307	1294837	1.92
9.310	1224458	1.81
9.313	1162059	1.72
9.317	1095184	1.62
9.320	1023076	1.52
9.323	956932	1.42
9.327	898241	1.33
9.330	848393	1.26
9.333	811970	1.20
9.337	792035	1.17
9.340	785358	1.16
9.343	783424	1.16
9.347	785703	1.16
9.350	794888	1.18
9.353	816285	1.21
9.357	861644	1.28
9.360	941266	1.39
9.363	1076516	1.59
9.367	1297450	1.92
9.370	1618298	2.40
9.373	2017921	2.99
9.377	2427003	3.59
9.380	2775987	4.11
9.383	3036532	4.50
9.387	3179856	4.71
9.390	3140829	4.65
9.393	2932694	4.34
9.397	2653173	3.93
9.400	2385686	3.53
9.403	2164125	3.21
9.407	1980564	2.93
9.410	1821849	2.70
9.413	1676353	2.48
9.417	1522310	2.25
9.420	1356391	2.01
9.423	1204454	1.78
9.427	1075667	1.59
9.430	967741	1.43
9.433	888956	1.32
9.437	838459	1.24
9.440	808878	1.20
9.443	797948	1.18
9.447	808875	1.20
9.450	854530	1.27
9.453	949526	1.41
9.457	1110070	1.64
9.460	1356167	2.01
9.463	1690704	2.50
9.467	2066782	3.06
9.470	2415056	3.58
9.473	2661820	3.94
9.477	2737496	4.05
9.480	2653827	3.93
9.483	2462077	3.65
9.487	2197191	3.25
9.490	1930813	2.86
9.493	1721759	2.55
9.497	1579577	2.34
9.500	1492498	2.21
9.503	1436556	2.13
9.507	1398949	2.07
9.510	1380081	2.04
9.513	1375354	2.04
9.517	1377008	2.04
9.520	1374151	2.04
9.523	1355804	2.01
9.527	1316709	1.95
9.530	1252505	1.85
9.533	1169213	1.73
9.537	1082309	1.60
9.540	1003573	1.49
9.543	938363	1.39
9.547	892090	1.32
9.550	862005	1.28
9.553	840036	1.24
9.557	819945	1.21
9.560	804565	1.19
9.563	798047	1.18
9.567	792573	1.17
9.570	786164	1.16
9.573	784491	1.16
9.577	782481	1.16
9.580	780417	1.16
9.583	778913	1.15
9.587	775032	1.15
9.590	771300	1.14
9.593	769733	1.14
9.597	769240	1.14
9.600	769260	1.14
9.603	769373	1.14
9.607	768984	1.14
9.610	767665	1.14
9.613	766296	1.13
9.617	765553	1.13
9.620	765292	1.13
9.623	763799	1.13
9.627	763275	1.13
9.630	765360	1.13
9.633	766482	1.14
9.637	766456	1.14
9.640	766218	1.13
9.643	766256	1.13
9.647	766117	1.13
9.650	763930	1.13
9.653	761812	1.13
9.657	763046	1.13
9.660	768110	1.14
9.663	773587	1.15
9.667	778414	1.15
9.670	785026	1.16
9.673	794653	1.18
9.677	803763	1.19
9.680	807910	1.20
9.683	807235	1.20
9.687	800983	1.19
9.690	792592	1.17
9.693	788710	1.17
9.697	789074	1.17
9.700	789130	1.17
9.703	788011	1.17
9.707	784965	1.16
9.710	780991	1.16
9.713	780857	1.16
9.717	780902	1.16
9.720	780871	1.16
9.723	782737	1.16
9.727	786671	1.17
9.730	791239	1.17
9.733	791353	1.17
9.737	788240	1.17
9.740	787008	1.17
9.743	783474	1.16
9.747	777381	1.15
9.750	773893	1.15
9.753	772923	1.14
9.757	769501	1.14
9.760	766155	1.13
9.763	761319	1.13
9.767	757212	1.12
9.770	757276	1.12
9.773	758155	1.12
9.777	757011	1.12
9.780	755052	1.12
9.783	753952	1.12
9.787	755960	1.12
9.790	758898	1.12
9.793	758680	1.12
9.797	757077	1.12
9.800	757007	1.12
9.803	757030	1.12
9.807	756352	1.12
9.810	757204	1.12
9.813	768478	1.14
9.817	791107	1.17
9.820	828959	1.23
9.823	900045	1.33
9.827	1020928	1.51
9.830	1196183	1.77
9.833	1413853	2.09
9.837	1641517	2.43
9.840	1839455	2.72
9.843	1977221	2.93
9.847	2039394	3.02
9.850	2015352	2.98
9.853	1909953	2.83
9.857	1746836	2.59
9.860	1556840	2.31
9.863	1377843	2.04
9.867	1225841	1.82
9.870	1101430	1.63
9.873	1003914	1.49
9.877	928093	1.37
9.880	870605	1.29
9.883	828986	1.23
9.887	804640	1.19
9.890	791990	1.17
9.893	782677	1.16
9.897	775625	1.15
9.900	771296	1.14
9.903	767531	1.14
9.907	764694	1.13
9.910	762324	1.13
9.913	760103	1.13
9.917	759481	1.12
9.920	759709	1.13
9.923	760128	1.13
9.927	759668	1.13
9.930	761732	1.13
9.933	764722	1.13
9.937	766007	1.13
9.940	771261	1.14
9.943	783084	1.16
9.947	801111	1.19
9.950	821587	1.22
9.953	841891	1.25
9.957	859387	1.27
9.960	871790	1.29
9.963	878119	1.30
9.967	881440	1.31
9.970	881450	1.31
9.973	875324	1.30
9.977	864559	1.28
9.980	849520	1.26
9.983	831090	1.23
9.987	812646	1.20
9.990	798947	1.18
9.993	787429	1.17
9.997	775891	1.15
10.000	767908	1.14
10.003	764222	1.13
10.007	761729	1.13
10.010	759714	1.13
10.013	757400	1.12
10.017	754979	1.12
10.020	754639	1.12
10.023	754369	1.12
10.027	754572	1.12
10.030	752873	1.12
10.033	751188	1.11
10.037	752892	1.12
10.040	753161	1.12
10.043	750935	1.11
10.047	750272	1.11
10.050	750579	1.11
10.053	750272	1.11
10.057	750164	1.11
10.060	752454	1.11
10.063	753173	1.12
10.067	752635	1.11
10.070	753358	1.12
10.073	752394	1.11
10.077	749788	1.11
10.080	750319	1.11
10.083	752913	1.12
10.087	754792	1.12
10.090	757621	1.12
10.093	762308	1.13
10.097	766394	1.14
10.100	764088	1.13
10.103	759820	1.13
10.107	757891	1.12
10.110	760680	1.13
10.113	761645	1.13
10.117	760379	1.13
10.120	761616	1.13
10.123	764151	1.13
10.127	764108	1.13
10.130	764153	1.13
10.133	766531	1.14
10.137	766851	1.14
10.140	768532	1.14
10.143	772301	1.14
10.147	773993	1.15
10.150	774878	1.15
10.153	774934	1.15
10.157	771465	1.14
10.160	768588	1.14
10.163	767123	1.14
10.167	762060	1.13
10.170	755950	1.12
10.173	752922	1.12
10.177	755056	1.12
10.180	756124	1.12
10.183	753774	1.12
10.187	751535	1.11
10.190	750238	1.11
10.193	751381	1.11
10.197	753884	1.12
10.200	755629	1.12
10.203	755485	1.12
10.207	754953	1.12
10.210	756791	1.12
10.213	761075	1.13
10.217	761604	1.13
10.220	760485	1.13
10.223	757232	1.12
10.227	753366	1.12
10.230	752248	1.11
10.233	752729	1.11
10.237	751915	1.11
10.240	750380	1.11
10.243	749500	1.11
10.247	749556	1.11
10.250	749125	1.11
10.253	748705	1.11
10.257	748519	1.11
10.260	748171	1.11
10.263	748402	1.11
10.267	747437	1.11
10.270	745397	1.10
10.273	745342	1.10
10.277	746984	1.11
10.280	749105	1.11
10.283	749627	1.11
10.287	748885	1.11
10.290	748326	1.11
10.293	748541	1.11
10.297	748505	1.11
10.300	749071	1.11
10.303	748905	1.11
10.307	746961	1.11
10.310	745998	1.10
10.313	745602	1.10
10.317	745354	1.10
10.320	745215	1.10
10.323	742366	1.10
10.327	740130	1.10
10.330	741760	1.10
10.333	746248	1.11
10.337	749155	1.11
10.340	751325	1.11
10.343	753865	1.12
10.347	760820	1.13
10.350	774020	1.15
10.353	789239	1.17
10.357	805549	1.19
10.360	827390	1.23
10.363	854449	1.27
10.367	885150	1.31
10.370	917114	1.36
10.373	949406	1.41
10.377	980990	1.45
10.380	1008628	1.49
10.383	1028974	1.52
10.387	1035686	1.53
10.390	1027565	1.52
10.393	1003478	1.49
10.397	966937	1.43
10.400	924179	1.37
10.403	880937	1.30
10.407	843415	1.25
10.410	810199	1.20
10.413	785717	1.16
10.417	773460	1.15
10.420	764762	1.13
10.423	757452	1.12
10.427	751878	1.11
10.430	751549	1.11
10.433	754065	1.12
10.437	757514	1.12
10.440	763630	1.13
10.443	775533	1.15
10.447	797450	1.18
10.450	837853	1.24
10.453	903752	1.34
10.457	987521	1.46
10.460	1078417	1.60
10.463	1157966	1.71
10.467	1210141	1.79
10.470	1223326	1.81
10.473	1192257	1.77
10.477	1127189	1.67
10.480	1048220	1.55
10.483	973657	1.44
10.487	915243	1.36
10.490	875172	1.30
10.493	847576	1.26
10.497	827474	1.23
10.500	813240	1.20
10.503	801468	1.19
10.507	790712	1.17
10.510	784118	1.16
10.513	781112	1.16
10.517	778841	1.15
10.520	778870	1.15
10.523	788636	1.17
10.527	812647	1.20
10.530	853194	1.26
10.533	915339	1.36
10.537	996937	1.48
10.540	1085694	1.61
10.543	1162652	1.72
10.547	1218791	1.81
10.550	1252202	1.85
10.553	1255608	1.86
10.557	1223724	1.81
10.560	1165797	1.73
10.563	1096785	1.62
10.567	1026291	1.52
10.570	955840	1.42
10.573	891245	1.32
10.577	839816	1.24
10.580	804286	1.19
10.583	780947	1.16
10.587	768683	1.14
10.590	762858	1.13
10.593	760479	1.13
10.597	765202	1.13
10.600	775518	1.15
10.603	785968	1.16
10.607	794129	1.18
10.610	799749	1.18
10.613	804300	1.19
10.617	809003	1.20
10.620	810461	1.20
10.623	808796	1.20
10.627	803939	1.19
10.630	797098	1.18
10.633	791635	1.17
10.637	786264	1.16
10.640	779774	1.15
10.643	773090	1.14
10.647	768681	1.14
10.650	764516	1.13
10.653	758455	1.12
10.657	753671	1.12
10.660	751665	1.11
10.663	750710	1.11
10.667	750530	1.11
10.670	751109	1.11
10.673	750683	1.11
10.677	750848	1.11
10.680	751395	1.11
10.683	752898	1.12
10.687	756758	1.12
10.690	765319	1.13
10.693	784240	1.16
10.697	820480	1.22
10.700	877724	1.30
10.703	954670	1.41
10.707	1040524	1.54
10.710	1124980	1.67
10.713	1195311	1.77
10.717	1236995	1.83
10.720	1237680	1.83
10.723	1202436	1.78
10.727	1143598	1.69
10.730	1063380	1.57
10.733	972126	1.44
10.737	894161	1.32
10.740	838370	1.24
10.743	801991	1.19
10.747	779992	1.16
10.750	766174	1.13
10.753	759045	1.12
10.757	756384	1.12
10.760	756080	1.12
10.763	755779	1.12
10.767	755828	1.12
10.770	755601	1.12
10.773	755664	1.12
10.777	759143	1.12
10.780	762468	1.13
10.783	761437	1.13
10.787	756500	1.12
10.790	755725	1.12
10.793	753200	1.12
10.797	749892	1.11
10.800	748154	1.11
10.803	743811	1.10
10.807	743622	1.10
10.810	745898	1.10
10.813	743498	1.10
10.817	739336	1.09
10.820	738725	1.09
10.823	741959	1.10
10.827	743918	1.10
10.830	742064	1.10
10.833	739272	1.09
10.837	739260	1.09
10.840	742095	1.10
10.843	746639	1.11
10.847	747913	1.11
10.850	746607	1.11
10.853	747006	1.11
10.857	748117	1.11
10.860	749455	1.11
10.863	750687	1.11
10.867	749739	1.11
10.870	748852	1.11
10.873	750380	1.11
10.877	748500	1.11
10.880	746776	1.11
10.883	748001	1.11
10.887	748598	1.11
10.890	750606	1.11
10.893	762778	1.13
10.897	791307	1.17
10.900	843625	1.25
10.903	930215	1.38
10.907	1054587	1.56
10.910	1214906	1.80
10.913	1393127	2.06
10.917	1550542	2.30
10.920	1667329	2.47
10.923	1725264	2.56
10.927	1693105	2.51
10.930	1578759	2.34
10.933	1429365	2.12
10.937	1284368	1.90
10.940	1161954	1.72
10.943	1065040	1.58
10.947	990082	1.47
10.950	931964	1.38
10.953	885294	1.31
10.957	849396	1.26
10.960	825535	1.22
10.963	809721	1.20
10.967	798136	1.18
10.970	790300	1.17
10.973	786472	1.16
10.977	785256	1.16
10.980	783001	1.16
10.983	781937	1.16
10.987	782786	1.16
10.990	785855	1.16
10.993	790240	1.17
10.997	795791	1.18
11.000	801243	1.19
11.003	805172	1.19
11.007	808452	1.20
11.010	813289	1.20
11.013	817596	1.21
11.017	817118	1.21
11.020	813272	1.20
11.023	814842	1.21
11.027	830047	1.23
11.030	866351	1.28
11.033	935561	1.39
11.037	1050385	1.56
11.040	1217963	1.80
11.043	1429995	2.12
11.047	1659862	2.46
11.050	1883113	2.79
11.053	2064304	3.06
11.057	2147784	3.18
11.060	2106171	3.12
11.063	1956742	2.90
11.067	1741599	2.58
11.070	1506474	2.23
11.073	1290001	1.91
11.077	1124540	1.67
11.080	1018521	1.51
11.083	956772	1.42
11.087	920981	1.36
11.090	900096	1.33
11.093	886205	1.31
11.097	873832	1.29
11.100	858611	1.27
11.103	839603	1.24
11.107	823503	1.22
11.110	811779	1.20
11.113	801615	1.19
11.117	793563	1.18
11.120	788283	1.17
11.123	785350	1.16
11.127	785050	1.16
11.130	782361	1.16
11.133	778144	1.15
11.137	775035	1.15
11.140	774932	1.15
11.143	774258	1.15
11.147	770996	1.14
11.150	767484	1.14
11.153	766140	1.13
11.157	766709	1.14
11.160	767336	1.14
11.163	766133	1.13
11.167	763628	1.13
11.170	762624	1.13
11.173	762846	1.13
11.177	764102	1.13
11.180	764288	1.13
11.183	763577	1.13
11.187	763322	1.13
11.190	762923	1.13
11.193	762813	1.13
11.197	763653	1.13
11.200	765819	1.13
11.203	765688	1.13
11.207	763050	1.13
11.210	761615	1.13
11.213	762264	1.13
11.217	761925	1.13
11.220	758513	1.12
11.223	756946	1.12
11.227	756638	1.12
11.230	756786	1.12
11.233	758064	1.12
11.237	757042	1.12
11.240	755956	1.12
11.243	755700	1.12
11.247	755563	1.12
11.250	754808	1.12
11.253	752953	1.12
11.257	752922	1.12
11.260	753798	1.12
11.263	753752	1.12
11.267	753939	1.12
11.270	753866	1.12
11.273	751836	1.11
11.277	750008	1.11
11.280	749718	1.11
11.283	748963	1.11
11.287	747800	1.11
11.290	747920	1.11
11.293	751075	1.11
11.297	753428	1.12
11.300	752315	1.11
11.303	752319	1.11
11.307	753637	1.12
11.310	753776	1.12
11.313	752046	1.11
11.317	749264	1.11
11.320	749524	1.11
11.323	752032	1.11
11.327	751714	1.11
11.330	751436	1.11
11.333	753510	1.12
11.337	756073	1.12
11.340	759192	1.12
11.343	765372	1.13
11.347	768407	1.14
11.350	768613	1.14
11.353	768173	1.14
11.357	767485	1.14
11.360	766402	1.14
11.363	762319	1.13
11.367	761942	1.13
11.370	766199	1.13
11.373	774229	1.15
11.377	783056	1.16
11.380	790956	1.17
11.383	793697	1.18
11.387	787989	1.17
11.390	780073	1.16
11.393	774237	1.15
11.397	767021	1.14
11.400	760338	1.13
11.403	756992	1.12
11.407	752885	1.12
11.410	748820	1.11
11.413	748073	1.11
11.417	746112	1.11
11.420	743114	1.10
11.423	743539	1.10
11.427	743862	1.10
11.430	743651	1.10
11.433	745844	1.10
11.437	746933	1.11
11.440	747173	1.11
11.443	748823	1.11
11.447	748988	1.11
11.450	745900	1.10
11.453	745820	1.10
11.457	748604	1.11
11.460	748677	1.11
11.463	746729	1.11
11.467	743924	1.10
11.470	742569	1.10
11.473	740374	1.10
11.477	738874	1.09
11.480	740481	1.10
11.483	740691	1.10
11.487	740635	1.10
11.490	742537	1.10
11.493	742808	1.10
11.497	745344	1.10
11.500	747180	1.11
11.503	746028	1.10
11.507	747648	1.11
11.510	750250	1.11
11.513	750549	1.11
11.517	749120	1.11
11.520	747753	1.11
11.523	748604	1.11
11.527	747070	1.11
11.530	741699	1.10
11.533	740112	1.10
11.537	742496	1.10
11.540	744868	1.10
11.543	744610	1.10
11.547	743909	1.10
11.550	742406	1.10
11.553	741014	1.10
11.557	741665	1.10
11.560	741582	1.10
11.563	740611	1.10
11.567	739983	1.10
11.570	737129	1.09
11.573	734440	1.09
11.577	734155	1.09
11.580	735970	1.09
11.583	736708	1.09
11.587	736056	1.09
11.590	735488	1.09
11.593	736733	1.09
11.597	739714	1.10
11.600	743552	1.10
11.603	745046	1.10
11.607	743183	1.10
11.610	741291	1.10
11.613	741447	1.10
11.617	742242	1.10
11.620	743427	1.10
11.623	744396	1.10
11.627	743025	1.10
11.630	738329	1.09
11.633	737168	1.09
11.637	739456	1.10
11.640	738618	1.09
11.643	735614	1.09
11.647	734066	1.09
11.650	733954	1.09
11.653	734368	1.09
11.657	737215	1.09
11.660	739721	1.10
11.663	740877	1.10
11.667	741047	1.10
11.670	740875	1.10
11.673	740635	1.10
11.677	739164	1.09
11.680	737082	1.09
11.683	737342	1.09
11.687	740044	1.10
11.690	743013	1.10
11.693	743771	1.10
11.697	743860	1.10
11.700	743753	1.10
11.703	743483	1.10
11.707	742058	1.10
11.710	739762	1.10
11.713	740655	1.10
11.717	743631	1.10
11.720	743651	1.10
11.723	743642	1.10
11.727	743704	1.10
11.730	741013	1.10
11.733	738926	1.09
11.737	738556	1.09
11.740	738702	1.09
11.743	739185	1.09
11.747	739608	1.10
11.750	739365	1.10
11.753	738736	1.09
11.757	737512	1.09
11.760	737648	1.09
11.763	739074	1.09
11.767	738931	1.09
11.770	739029	1.09
11.773	739478	1.10
11.777	739990	1.10
11.780	743685	1.10
11.783	746687	1.11
11.787	745303	1.10
11.790	743388	1.10
11.793	743670	1.10
11.797	743172	1.10
11.800	739804	1.10
11.803	739980	1.10
11.807	740707	1.10
11.810	740273	1.10
11.813	740325	1.10
11.817	739586	1.10
11.820	735344	1.09
11.823	732753	1.09
11.827	731493	1.08
11.830	731025	1.08
11.833	732584	1.08
11.837	732150	1.08
11.840	730373	1.08
11.843	729976	1.08
11.847	730978	1.08
11.850	731837	1.08
11.853	733051	1.09
11.857	734521	1.09
11.860	734699	1.09
11.863	733327	1.09
11.867	732240	1.08
11.870	732385	1.08
11.873	732409	1.08
11.877	733329	1.09
11.880	737879	1.09
11.883	741202	1.10
11.887	741734	1.10
11.890	742070	1.10
11.893	744158	1.10
11.897	745859	1.10
11.900	745082	1.10
11.903	741031	1.10
11.907	737805	1.09
11.910	737431	1.09
11.913	734793	1.09
11.917	733322	1.09
11.920	731226	1.08
11.923	728188	1.08
11.927	728925	1.08
11.930	730937	1.08
11.933	732321	1.08
11.937	733891	1.09
11.940	734100	1.09
11.943	734630	1.09
11.947	734746	1.09
11.950	734105	1.09
11.953	732543	1.08
11.957	731062	1.08
11.960	730314	1.08
11.963	730389	1.08
11.967	731979	1.08
11.970	731046	1.08
11.973	730217	1.08
11.977	731021	1.08
11.980	728626	1.08
11.983	727359	1.08
11.987	727828	1.08
11.990	726693	1.08
11.993	725972	1.08
11.997	723893	1.07
12.000	723724	1.07
12.003	726768	1.08
12.007	728630	1.08
12.010	727687	1.08
12.013	727874	1.08
12.017	730180	1.08
12.020	730143	1.08
12.023	728804	1.08
12.027	728001	1.08
12.030	728257	1.08
12.033	729977	1.08
12.037	730222	1.08
12.040	728796	1.08
12.043	727829	1.08
12.047	726340	1.08
12.050	726229	1.08
12.053	728020	1.08
12.057	730008	1.08
12.060	730204	1.08
12.063	730108	1.08
12.067	730470	1.08
12.070	730096	1.08
12.073	729990	1.08
12.077	733090	1.09
12.080	735217	1.09
12.083	734983	1.09
12.087	733281	1.09
12.090	734094	1.09
12.093	738180	1.09
12.097	743428	1.10
12.100	749385	1.11
12.103	759536	1.12
12.107	777401	1.15
12.110	802693	1.19
12.113	826134	1.22
12.117	843700	1.25
12.120	852789	1.26
12.123	851884	1.26
12.127	841272	1.25
12.130	825580	1.22
12.133	802681	1.19
12.137	776851	1.15
12.140	758657	1.12
12.143	749094	1.11
12.147	743392	1.10
12.150	739270	1.09
12.153	735116	1.09
12.157	733798	1.09
12.160	735212	1.09
12.163	737581	1.09
12.167	741456	1.10
12.170	753140	1.12
12.173	775726	1.15
12.177	807486	1.20
12.180	846691	1.25
12.183	891645	1.32
12.187	933591	1.38
12.190	957569	1.42
12.193	957511	1.42
12.197	933610	1.38
12.200	894147	1.32
12.203	851574	1.26
12.207	814528	1.21
12.210	784747	1.16
12.213	763489	1.13
12.217	753087	1.12
12.220	746586	1.11
12.223	740875	1.10
12.227	735467	1.09
12.230	732453	1.08
12.233	732399	1.08
12.237	732309	1.08
12.240	729944	1.08
12.243	729157	1.08
12.247	729601	1.08
12.250	729828	1.08
12.253	729433	1.08
12.257	729310	1.08
12.260	729821	1.08
12.263	730541	1.08
12.267	730026	1.08
12.270	730220	1.08
12.273	735497	1.09
12.277	740570	1.10
12.280	741296	1.10
12.283	744025	1.10
12.287	747020	1.11
12.290	746644	1.11
12.293	741454	1.10
12.297	740738	1.10
12.300	740931	1.10
12.303	738745	1.09
12.307	737733	1.09
12.310	741324	1.10
12.313	749947	1.11
12.317	763608	1.13
12.320	782568	1.16
12.323	804540	1.19
12.327	826986	1.22
12.330	845307	1.25
12.333	852508	1.26
12.337	851098	1.26
12.340	838880	1.24
12.343	815544	1.21
12.347	790917	1.17
12.350	773183	1.15
12.353	762215	1.13
12.357	751904	1.11
12.360	744344	1.10
12.363	741293	1.10
12.367	737806	1.09
12.370	734790	1.09
12.373	732384	1.08
12.377	730713	1.08
12.380	729661	1.08
12.383	729644	1.08
12.387	732351	1.08
12.390	737239	1.09
12.393	741132	1.10
12.397	746852	1.11
12.400	760177	1.13
12.403	778117	1.15
12.407	795937	1.18
12.410	812775	1.20
12.413	825826	1.22
12.417	834612	1.24
12.420	836753	1.24
12.423	830083	1.23
12.427	814500	1.21
12.430	795597	1.18
12.433	781620	1.16
12.437	773193	1.15
12.440	768273	1.14
12.443	768132	1.14
12.447	768517	1.14
12.450	765507	1.13
12.453	759902	1.13
12.457	754810	1.12
12.460	750004	1.11
12.463	746440	1.11
12.467	742593	1.10
12.470	737488	1.09
12.473	735113	1.09
12.477	734918	1.09
12.480	734832	1.09
12.483	734822	1.09
12.487	732681	1.09
12.490	729646	1.08
12.493	727195	1.08
12.497	726069	1.08
12.500	727126	1.08
12.503	727456	1.08
12.507	727372	1.08
12.510	725847	1.07
12.513	724439	1.07
12.517	725217	1.07
12.520	727396	1.08
12.523	728217	1.08
12.527	729158	1.08
12.530	729503	1.08
12.533	727950	1.08
12.537	728161	1.08
12.540	728117	1.08
12.543	728581	1.08
12.547	732769	1.09
12.550	734139	1.09
12.553	732752	1.09
12.557	732720	1.09
12.560	735139	1.09
12.563	738647	1.09
12.567	740777	1.10
12.570	742902	1.10
12.573	742959	1.10
12.577	742874	1.10
12.580	742926	1.10
12.583	740970	1.10
12.587	737264	1.09
12.590	735036	1.09
12.593	732946	1.09
12.597	729943	1.08
12.600	728417	1.08
12.603	726236	1.08
12.607	725279	1.07
12.610	725421	1.07
12.613	725695	1.07
12.617	727854	1.08
12.620	727784	1.08
12.623	726521	1.08
12.627	727085	1.08
12.630	728461	1.08
12.633	728578	1.08
12.637	727548	1.08
12.640	725894	1.08
12.643	725122	1.07
12.647	725239	1.07
12.650	725213	1.07
12.653	724640	1.07
12.657	725116	1.07
12.660	725131	1.07
12.663	723309	1.07
12.667	721565	1.07
12.670	721201	1.07
12.673	719653	1.07
12.677	719762	1.07
12.680	722985	1.07
12.683	723917	1.07
12.687	724740	1.07
12.690	726605	1.08
12.693	725748	1.07
12.697	723649	1.07
12.700	724099	1.07
12.703	724922	1.07
12.707	722877	1.07
12.710	721958	1.07
12.713	722091	1.07
12.717	722054	1.07
12.720	721968	1.07
12.723	721567	1.07
12.727	720711	1.07
12.730	720108	1.07
12.733	719571	1.07
12.737	719620	1.07
12.740	721188	1.07
12.743	721892	1.07
12.747	721598	1.07
12.750	720861	1.07
12.753	720488	1.07
12.757	721160	1.07
12.760	722002	1.07
12.763	720817	1.07
12.767	719831	1.07
12.770	720859	1.07
12.773	720242	1.07
12.777	719228	1.07
12.780	721894	1.07
12.783	722078	1.07
12.787	718438	1.06
12.790	716122	1.06
12.793	716206	1.06
12.797	715459	1.06
12.800	715830	1.06
12.803	718318	1.06
12.807	718606	1.06
12.810	717023	1.06
12.813	716006	1.06
12.817	717904	1.06
12.820	720240	1.07
12.823	719996	1.07
12.827	720032	1.07
12.830	720219	1.07
12.833	719708	1.07
12.837	718787	1.06
12.840	717957	1.06
12.843	718345	1.06
12.847	717987	1.06
12.850	717384	1.06
12.853	716700	1.06
12.857	714811	1.06
12.860	714747	1.06
12.863	716567	1.06
12.867	718379	1.06
12.870	719028	1.06
12.873	718944	1.06
12.877	717673	1.06
12.880	716035	1.06
12.883	715123	1.06
12.887	714256	1.06
12.890	713898	1.06
12.893	714104	1.06
12.897	714376	1.06
12.900	715649	1.06
12.903	717596	1.06
12.907	718968	1.06
12.910	722245	1.07
12.913	727830	1.08
12.917	733108	1.09
12.920	736699	1.09
12.923	740974	1.10
12.927	745305	1.10
12.930	745446	1.10
12.933	743867	1.10
12.937	739470	1.10
12.940	733208	1.09
12.943	727750	1.08
12.947	722165	1.07
12.950	719769	1.07
12.953	719713	1.07
12.957	717406	1.06
12.960	714047	1.06
12.963	713883	1.06
12.967	714306	1.06
12.970	713636	1.06
12.973	712821	1.06
12.977	713977	1.06
12.980	714473	1.06
12.983	714122	1.06
12.987	714215	1.06
12.990	714471	1.06
12.993	715215	1.06
12.997	714587	1.06
13.000	714077	1.06
13.003	716733	1.06
13.007	719191	1.07
13.010	719540	1.07
13.013	719115	1.07
13.017	717161	1.06
13.020	716398	1.06
13.023	714247	1.06
13.027	713120	1.06
13.030	714789	1.06
13.033	718234	1.06
13.037	721103	1.07
13.040	724530	1.07
13.043	726309	1.08
13.047	729482	1.08
13.050	735292	1.09
13.053	739138	1.09
13.057	739523	1.10
13.060	739166	1.09
13.063	736455	1.09
13.067	731618	1.08
13.070	724701	1.07
13.073	719407	1.07
13.077	718161	1.06
13.080	719394	1.07
13.083	721703	1.07
13.087	722093	1.07
13.090	723433	1.07
13.093	724629	1.07
13.097	721995	1.07
13.100	719056	1.06
13.103	718991	1.06
13.107	717918	1.06
13.110	718025	1.06
13.113	721430	1.07
13.117	721374	1.07
13.120	719313	1.07
13.123	719562	1.07
13.127	719004	1.06
13.130	715850	1.06
13.133	715619	1.06
13.137	715900	1.06
13.140	715931	1.06
13.143	716701	1.06
13.147	716336	1.06
13.150	717053	1.06
13.153	721413	1.07
13.157	736653	1.09
13.160	776492	1.15
13.163	863780	1.28
13.167	1040205	1.54
13.170	1370321	2.03
13.173	1888614	2.80
13.177	2490347	3.69
13.180	2969068	4.40
13.183	3176310	4.70
13.187	3046080	4.51
13.190	2614744	3.87
13.193	2058740	3.05
13.197	1551286	2.30
13.200	1172010	1.74
13.203	939291	1.39
13.207	821400	1.22
13.210	771411	1.14
13.213	753604	1.12
13.217	746689	1.11
13.220	739428	1.10
13.223	733794	1.09
13.227	731104	1.08
13.230	730528	1.08
13.233	730556	1.08
13.237	729597	1.08
13.240	729626	1.08
13.243	731640	1.08
13.247	731481	1.08
13.250	730305	1.08
13.253	729850	1.08
13.257	727882	1.08
13.260	725647	1.07
13.263	724631	1.07
13.267	725833	1.07
13.270	725918	1.08
13.273	722068	1.07
13.277	719654	1.07
13.280	721063	1.07
13.283	723328	1.07
13.287	723833	1.07
13.290	722113	1.07
13.293	720992	1.07
13.297	722012	1.07
13.300	720518	1.07
13.303	719050	1.06
13.307	720545	1.07
13.310	719836	1.07
13.313	717919	1.06
13.317	720165	1.07
13.320	720781	1.07
13.323	720125	1.07
13.327	720429	1.07
13.330	720289	1.07
13.333	718947	1.06
13.337	720045	1.07
13.340	722182	1.07
13.343	720368	1.07
13.347	719344	1.07
13.350	720659	1.07
13.353	722608	1.07
13.357	726106	1.08
13.360	729264	1.08
13.363	730449	1.08
13.367	733750	1.09
13.370	736610	1.09
13.373	734337	1.09
13.377	729211	1.08
13.380	724709	1.07
13.383	720141	1.07
13.387	716241	1.06
13.390	714715	1.06
13.393	714392	1.06
13.397	713205	1.06
13.400	710573	1.05
13.403	710728	1.05
13.407	713933	1.06
13.410	716193	1.06
13.413	718716	1.06
13.417	722087	1.07
13.420	726288	1.08
13.423	730855	1.08
13.427	734750	1.09
13.430	738436	1.09
13.433	738123	1.09
13.437	729317	1.08
13.440	722593	1.07
13.443	719740	1.07
13.447	716085	1.06
13.450	712488	1.06
13.453	711276	1.05
13.457	714018	1.06
13.460	716116	1.06
13.463	714539	1.06
13.467	712071	1.05
13.470	710133	1.05
13.473	709426	1.05
13.477	710043	1.05
13.480	709237	1.05
13.483	709105	1.05
13.487	711396	1.05
13.490	712522	1.06
13.493	711281	1.05
13.497	709625	1.05
13.500	709472	1.05
13.503	711431	1.05
13.507	714201	1.06
13.510	713705	1.06
13.513	711069	1.05
13.517	712130	1.05
13.520	719237	1.07
13.523	735906	1.09
13.527	780819	1.16
13.530	875343	1.30
13.533	1028831	1.52
13.537	1228920	1.82
13.540	1432183	2.12
13.543	1567113	2.32
13.547	1559331	2.31
13.550	1405437	2.08
13.553	1188229	1.76
13.557	993461	1.47
13.560	864113	1.28
13.563	797750	1.18
13.567	765388	1.13
13.570	746961	1.11
13.573	739464	1.10
13.577	736737	1.09
13.580	730073	1.08
13.583	723933	1.07
13.587	722744	1.07
13.590	722602	1.07
13.593	720916	1.07
13.597	720409	1.07
13.600	721690	1.07
13.603	719847	1.07
13.607	717309	1.06
13.610	717509	1.06
13.613	718161	1.06
13.617	720241	1.07
13.620	720924	1.07
13.623	719361	1.07
13.627	718051	1.06
13.630	719629	1.07
13.633	723175	1.07
13.637	727040	1.08
13.640	729901	1.08
13.643	729870	1.08
13.647	726158	1.08
13.650	722490	1.07
13.653	719996	1.07
13.657	717862	1.06
13.660	716666	1.06
13.663	716364	1.06
13.667	717610	1.06
13.670	717481	1.06
13.673	716054	1.06
13.677	716345	1.06
13.680	715826	1.06
13.683	712984	1.06
13.687	711608	1.05
13.690	711183	1.05
13.693	712652	1.06
13.697	715301	1.06
13.700	716862	1.06
13.703	717566	1.06
13.707	718058	1.06
13.710	717729	1.06
13.713	714468	1.06
13.717	711181	1.05
13.720	710807	1.05
13.723	712944	1.06
13.727	714572	1.06
13.730	713017	1.06
13.733	711684	1.05
13.737	711482	1.05
13.740	710942	1.05
13.743	706578	1.05
13.747	703238	1.04
13.750	704799	1.04
13.753	706138	1.05
13.757	705761	1.05
13.760	706604	1.05
13.763	707895	1.05
13.767	707706	1.05
13.770	706146	1.05
13.773	707637	1.05
13.777	710784	1.05
13.780	710476	1.05
13.783	708189	1.05
13.787	707382	1.05
13.790	707931	1.05
13.793	713971	1.06
13.797	725419	1.07
13.800	740887	1.10
13.803	754441	1.12
13.807	759270	1.12
13.810	754426	1.12
13.813	744634	1.10
13.817	732457	1.08
13.820	719592	1.07
13.823	713113	1.06
13.827	710817	1.05
13.830	710136	1.05
13.833	708009	1.05
13.837	705462	1.04
13.840	704691	1.04
13.843	705534	1.04
13.847	708373	1.05
13.850	710748	1.05
13.853	710550	1.05
13.857	710857	1.05
13.860	710603	1.05
13.863	708307	1.05
13.867	707390	1.05
13.870	704681	1.04
13.873	704032	1.04
13.877	704376	1.04
13.880	704363	1.04
13.883	704984	1.04
13.887	705883	1.05
13.890	705200	1.04
13.893	704101	1.04
13.897	704157	1.04
13.900	704631	1.04
13.903	705355	1.04
13.907	705480	1.04
13.910	705109	1.04
13.913	704148	1.04
13.917	703732	1.04
13.920	705561	1.04
13.923	710842	1.05
13.927	711350	1.05
13.930	706961	1.05
13.933	704227	1.04
13.937	704676	1.04
13.940	705017	1.04
13.943	704982	1.04
13.947	704039	1.04
13.950	701448	1.04
13.953	702005	1.04
13.957	704926	1.04
13.960	704951	1.04
13.963	703845	1.04
13.967	704533	1.04
13.970	705401	1.04
13.973	707033	1.05
13.977	707087	1.05
13.980	704820	1.04
13.983	703394	1.04
13.987	702982	1.04
13.990	700736	1.04
13.993	698988	1.04
13.997	698218	1.03
14.000	697979	1.03
14.003	700109	1.04
14.007	700563	1.04
14.010	697565	1.03
14.013	697270	1.03
14.017	697776	1.03
14.020	696086	1.03
14.023	694790	1.03
14.027	694945	1.03
14.030	696512	1.03
14.033	699116	1.04
14.037	699932	1.04
14.040	698385	1.03
14.043	699850	1.04
14.047	702876	1.04
14.050	702941	1.04
14.053	701847	1.04
14.057	699331	1.04
14.060	698507	1.03
14.063	699926	1.04
14.067	701763	1.04
14.070	700077	1.04
14.073	697627	1.03
14.077	698289	1.03
14.080	699297	1.04
14.083	698113	1.03
14.087	699302	1.04
14.090	701510	1.04
14.093	701520	1.04
14.097	699732	1.04
14.100	697943	1.03
14.103	698945	1.04
14.107	701973	1.04
14.110	702285	1.04
14.113	699516	1.04
14.117	696833	1.03
14.120	696841	1.03
14.123	697858	1.03
14.127	697232	1.03
14.130	696901	1.03
14.133	696775	1.03
14.137	698372	1.03
14.140	702638	1.04
14.143	703457	1.04
14.147	701619	1.04
14.150	699567	1.04
14.153	699978	1.04
14.157	703024	1.04
14.160	701854	1.04
14.163	698100	1.03
14.167	697975	1.03
14.170	698337	1.03
14.173	698774	1.03
14.177	700456	1.04
14.180	702634	1.04
14.183	703339	1.04
14.187	702776	1.04
14.190	700543	1.04
14.193	699175	1.04
14.197	699762	1.04
14.200	700195	1.04
14.203	700506	1.04
14.207	701404	1.04
14.210	700786	1.04
14.213	699382	1.04
14.217	698110	1.03
14.220	698505	1.03
14.223	699331	1.04
14.227	698524	1.03
14.230	697986	1.03
14.233	697533	1.03
14.237	697494	1.03
14.240	697387	1.03
14.243	698423	1.03
14.247	699498	1.04
14.250	698758	1.03
14.253	697755	1.03
14.257	697688	1.03
14.260	697623	1.03
14.263	695608	1.03
14.267	695869	1.03
14.270	696866	1.03
14.273	694154	1.03
14.277	693281	1.03
14.280	695504	1.03
14.283	697737	1.03
14.287	698914	1.04
14.290	698622	1.03
14.293	697386	1.03
14.297	698390	1.03
14.300	699818	1.04
14.303	698142	1.03
14.307	694867	1.03
14.310	693149	1.03
14.313	694224	1.03
14.317	696302	1.03
14.320	696713	1.03
14.323	695174	1.03
14.327	693044	1.03
14.330	692082	1.02
14.333	692480	1.03
14.337	691959	1.02
14.340	692323	1.03
14.343	693750	1.03
14.347	692743	1.03
14.350	693011	1.03
14.353	693788	1.03
14.357	693555	1.03
14.360	694178	1.03
14.363	694594	1.03
14.367	696169	1.03
14.370	696270	1.03
14.373	693610	1.03
14.377	692072	1.02
14.380	692902	1.03
14.383	694459	1.03
14.387	694485	1.03
14.390	693424	1.03
14.393	692371	1.03
14.397	693936	1.03
14.400	697621	1.03
14.403	702914	1.04
14.407	714465	1.06
14.410	737004	1.09
14.413	765173	1.13
14.417	790799	1.17
14.420	803884	1.19
14.423	800657	1.19
14.427	786867	1.17
14.430	766717	1.14
14.433	741425	1.10
14.437	717168	1.06
14.440	702980	1.04
14.443	696717	1.03
14.447	694699	1.03
14.450	694744	1.03
14.453	692259	1.03
14.457	691011	1.02
14.460	694645	1.03
14.463	698863	1.04
14.467	703007	1.04
14.470	709368	1.05
14.473	713112	1.06
14.477	708880	1.05
14.480	700423	1.04
14.483	694732	1.03
14.487	692977	1.03
14.490	692308	1.03
14.493	692691	1.03
14.497	694206	1.03
14.500	694804	1.03
14.503	694412	1.03
14.507	692570	1.03
14.510	691216	1.02
14.513	691994	1.02
14.517	694509	1.03
14.520	693662	1.03
14.523	689234	1.02
14.527	686635	1.02
14.530	686766	1.02
14.533	687088	1.02
14.537	687259	1.02
14.540	688242	1.02
14.543	688847	1.02
14.547	690766	1.02
14.550	692955	1.03
14.553	692495	1.03
14.557	691975	1.02
14.560	692781	1.03
14.563	689683	1.02
14.567	687279	1.02
14.570	689359	1.02
14.573	691650	1.02
14.577	697399	1.03
14.580	707714	1.05
14.583	716611	1.06
14.587	720381	1.07
14.590	718758	1.06
14.593	710754	1.05
14.597	703536	1.04
14.600	699091	1.04
14.603	694885	1.03
14.607	692451	1.03
14.610	690444	1.02
14.613	688375	1.02
14.617	686714	1.02
14.620	682911	1.01
14.623	680965	1.01
14.627	683323	1.01
14.630	685058	1.01
14.633	684067	1.01
14.637	682975	1.01
14.640	683032	1.01
14.643	684777	1.01
14.647	687320	1.02
14.650	688693	1.02
14.653	689309	1.02
14.657	690399	1.02
14.660	690230	1.02
14.663	692516	1.03
14.667	700792	1.04
14.670	712818	1.06
14.673	724805	1.07
14.677	729094	1.08
14.680	724795	1.07
14.683	712812	1.06
14.687	698648	1.03
14.690	690415	1.02
14.693	687443	1.02
14.697	686534	1.02
14.700	685381	1.02
14.703	682888	1.01
14.707	683162	1.01
14.710	686200	1.02
14.713	687414	1.02
14.717	687783	1.02
14.720	689014	1.02
14.723	686918	1.02
14.727	685210	1.01
14.730	685820	1.02
14.733	685868	1.02
14.737	685893	1.02
14.740	684671	1.01
14.743	682965	1.01
14.747	684146	1.01
14.750	685415	1.02
14.753	685416	1.02
14.757	685907	1.02
14.760	687988	1.02
14.763	695976	1.03
14.767	716857	1.06
14.770	751040	1.11
14.773	792631	1.17
14.777	824273	1.22
14.780	828131	1.23
14.783	799155	1.18
14.787	755733	1.12
14.790	722258	1.07
14.793	704191	1.04
14.797	699121	1.04
14.800	706353	1.05
14.803	717004	1.06
14.807	725867	1.08
14.810	728304	1.08
14.813	722220	1.07
14.817	720819	1.07
14.820	740278	1.10
14.823	791348	1.17
14.827	865703	1.28
14.830	926752	1.37
14.833	942672	1.40
14.837	907729	1.34
14.840	835228	1.24
14.843	764244	1.13
14.847	721882	1.07
14.850	701836	1.04
14.853	694943	1.03
14.857	692191	1.03
14.860	688874	1.02
14.863	687173	1.02
14.867	685742	1.02
14.870	685569	1.02
14.873	687105	1.02
14.877	687505	1.02
14.880	686239	1.02
14.883	686191	1.02
14.887	686400	1.02
14.890	685829	1.02
14.893	685087	1.01
14.897	686379	1.02
14.900	688211	1.02
14.903	688108	1.02
14.907	688100	1.02
14.910	686544	1.02
14.913	684252	1.01
14.917	684392	1.01
14.920	685387	1.02
14.923	683688	1.01
14.927	681839	1.01
14.930	683198	1.01
14.933	684461	1.01
14.937	684537	1.01
14.940	683783	1.01
14.943	683306	1.01
14.947	685045	1.01
14.950	687242	1.02
14.953	687741	1.02
14.957	688334	1.02
14.960	688209	1.02
14.963	685752	1.02
14.967	685150	1.01
14.970	686948	1.02
14.973	687522	1.02
14.977	688116	1.02
14.980	688008	1.02
14.983	686031	1.02
14.987	685888	1.02
14.990	687111	1.02
14.993	687480	1.02
14.997	688960	1.02
15.000	695554	1.03
15.003	707379	1.05
15.007	726718	1.08
15.010	747598	1.11
15.013	758531	1.12
15.017	755664	1.12
15.020	741195	1.10
15.023	721577	1.07
15.027	701816	1.04
15.030	689030	1.02
15.033	684881	1.01
15.037	683523	1.01
15.040	683228	1.01
15.043	683754	1.01
15.047	683918	1.01
15.050	683160	1.01
15.053	682370	1.01
15.057	679581	1.01
15.060	677887	1.00
15.063	678409	1.00
15.067	678595	1.01
15.070	677865	1.00
15.073	677880	1.00
15.077	678580	1.00
15.080	678982	1.01
15.083	681005	1.01
15.087	684812	1.01
15.090	688025	1.02
15.093	689165	1.02
15.097	689295	1.02
15.100	689234	1.02
15.103	687609	1.02
15.107	684843	1.01
15.110	684417	1.01
15.113	685421	1.02
15.117	685275	1.01
15.120	683578	1.01
15.123	680720	1.01
15.127	677980	1.00
15.130	675831	1.00
15.133	674949	1.00
15.137	675093	1.00
15.140	676107	1.00
15.143	677071	1.00
15.147	677225	1.00
15.150	677968	1.00
15.153	677980	1.00
15.157	674908	1.00
15.160	674992	1.00
15.163	677526	1.00
15.167	677850	1.00
15.170	678180	1.00
15.173	678175	1.00
15.177	676291	1.00
15.180	674133	1.00
15.183	673220	1.00
15.187	673038	1.00
15.190	673239	1.00
15.193	674214	1.00
15.197	675858	1.00
15.200	677960	1.00
15.203	679483	1.01
15.207	679738	1.01
15.210	680003	1.01
15.213	684153	1.01
15.217	689235	1.02
15.220	694602	1.03
15.223	703606	1.04
15.227	714059	1.06
15.230	723522	1.07
15.233	728378	1.08
15.237	723519	1.07
15.240	709851	1.05
15.243	694601	1.03
15.247	683835	1.01
15.250	678496	1.00
15.253	676701	1.00
15.257	678738	1.01
15.260	682851	1.01
15.263	683525	1.01
15.267	682993	1.01
15.270	681816	1.01
15.273	679764	1.01
15.277	679112	1.01
15.280	678371	1.00
15.283	677421	1.00
15.287	679069	1.01
15.290	679185	1.01
15.293	677292	1.00
15.297	676587	1.00
15.300	676580	1.00
15.303	676787	1.00
15.307	677032	1.00
15.310	677890	1.00
15.313	676936	1.00
15.317	674933	1.00
15.320	674598	1.00
15.323	674225	1.00
15.327	673355	1.00
15.330	670995	0.99
15.333	669744	0.99
15.337	671142	0.99
15.340	674013	1.00
15.343	673835	1.00
15.347	675282	1.00
15.350	678470	1.00
15.353	676892	1.00
15.357	675107	1.00
15.360	676439	1.00
15.363	676939	1.00
15.367	678012	1.00
15.370	676669	1.00
15.373	674182	1.00
15.377	676099	1.00
15.380	677220	1.00
15.383	676483	1.00
15.387	674461	1.00
15.390	674205	1.00
15.393	676940	1.00
15.397	678395	1.00
15.400	677239	1.00
15.403	674671	1.00
15.407	673164	1.00
15.410	675036	1.00
15.413	678102	1.00
15.417	676833	1.00
15.420	673371	1.00
15.423	672997	1.00
15.427	673516	1.00
15.430	674238	1.00
15.433	675852	1.00
15.437	675258	1.00
15.440	673765	1.00
15.443	672507	1.00
15.447	672835	1.00
15.450	675303	1.00
15.453	674252	1.00
15.457	671126	0.99
15.460	670156	0.99
15.463	670245	0.99
15.467	671666	0.99
15.470	672492	1.00
15.473	670675	0.99
15.477	670353	0.99
15.480	672715	1.00
15.483	672733	1.00
15.487	670313	0.99
15.490	670135	0.99
15.493	671200	0.99
15.497	672387	1.00
15.500	672805	1.00
15.503	672686	1.00
15.507	672712	1.00
15.510	673409	1.00
15.513	672811	1.00
15.517	670693	0.99
15.520	669073	0.99
15.523	668100	0.99
15.527	669836	0.99
15.530	671691	0.99
15.533	672319	1.00
15.537	671778	0.99
15.540	670632	0.99
15.543	671214	0.99
15.547	671209	0.99
15.550	670683	0.99
15.553	670374	0.99
15.557	670497	0.99
15.560	671115	0.99
15.563	670375	0.99
15.567	667959	0.99
15.570	666448	0.99
15.573	667896	0.99
15.577	669577	0.99
15.580	670028	0.99
15.583	669724	0.99
15.587	668684	0.99
15.590	668205	0.99
15.593	667978	0.99
15.597	667958	0.99
15.600	667947	0.99
15.603	667802	0.99
15.607	667116	0.99
15.610	665449	0.99
15.613	665349	0.99
15.617	665390	0.99
15.620	665327	0.99
15.623	666651	0.99
15.627	670516	0.99
15.630	672282	1.00
15.633	671417	0.99
15.637	670115	0.99
15.640	669125	0.99
15.643	669836	0.99
15.647	670932	0.99
15.650	672939	1.00
15.653	674325	1.00
15.657	674693	1.00
15.660	673817	1.00
15.663	673265	1.00
15.667	674622	1.00
15.670	673528	1.00
15.673	670409	0.99
15.677	670790	0.99
15.680	672656	1.00
15.683	672527	1.00
15.687	671970	1.00
15.690	673024	1.00
15.693	674120	1.00
15.697	673222	1.00
15.700	673820	1.00
15.703	679204	1.01
15.707	682181	1.01
15.710	679784	1.01
15.713	676133	1.00
15.717	674078	1.00
15.720	672362	1.00
15.723	672099	1.00
15.727	673132	1.00
15.730	674538	1.00
15.733	673897	1.00
15.737	672549	1.00
15.740	672914	1.00
15.743	673091	1.00
15.747	672900	1.00
15.750	672770	1.00
15.753	672918	1.00
15.757	673666	1.00
15.760	680843	1.01
15.763	695941	1.03
15.767	714683	1.06
15.770	731541	1.08
15.773	741074	1.10
15.777	739921	1.10
15.780	727846	1.08
15.783	711143	1.05
15.787	694453	1.03
15.790	681463	1.01
15.793	675744	1.00
15.797	674630	1.00
15.800	674207	1.00
15.803	674169	1.00
15.807	674313	1.00
15.810	674813	1.00
15.813	675437	1.00
15.817	674392	1.00
15.820	674204	1.00
15.823	674473	1.00
15.827	674589	1.00
15.830	674085	1.00
15.833	671987	1.00
15.837	670617	0.99
15.840	670941	0.99
15.843	671491	0.99
15.847	670812	0.99
15.850	669383	0.99
15.853	668687	0.99
15.857	669540	0.99
15.860	670826	0.99
15.863	670670	0.99
15.867	669805	0.99
15.870	669752	0.99
15.873	669793	0.99
15.877	668824	0.99
15.880	668889	0.99
15.883	668393	0.99
15.887	668077	0.99
15.890	670539	0.99
15.893	674003	1.00
15.897	673976	1.00
15.900	673440	1.00
15.903	673172	1.00
15.907	672185	1.00
15.910	672078	1.00
15.913	672071	1.00
15.917	669397	0.99
15.920	665588	0.99
15.923	666049	0.99
15.927	669265	0.99
15.930	671126	0.99
15.933	671560	0.99
15.937	670037	0.99
15.940	669630	0.99
15.943	671400	0.99
15.947	672633	1.00
15.950	672685	1.00
15.953	672855	1.00
15.957	672119	1.00
15.960	671676	0.99
15.963	672165	1.00
15.967	671596	0.99
15.970	670250	0.99
15.973	669625	0.99
15.977	669394	0.99
15.980	669575	0.99
15.983	671193	0.99
15.987	673307	1.00
15.990	672388	1.00
15.993	667617	0.99
15.997	664527	0.98

